Wavelength, nm	Sc/Rc	Wavelength	Signal	Baseline_Result	Baseline_Y
Raw CCD	counts/uA	nm	Sc/Rc		
	Fully Corrected Emission Spectrum		Water Raman		Baseline of "Signal"
246.74	9.56050507114958	365	137.956678090046	365	143.642887229929
247.3	5.43959771289545	365.5	150.55982673902	365.5	142.811236320255
247.86	1.81319923763182	366	122.924614810182	366	141.97958541058
248.42	4.2857436525843	366.5	128.986091569623	366.5	141.147934500905
248.98	8.73632359949876	367	147.322149420053	367	140.316283591231
249.54	9.06599618815909	367.5	139.173548433029	367.5	139.484632681556
250.1	0.173735300935772	368	133.839960590629	368	138.652981771881
250.66	6.90635610782488	368.5	142.341096434773	368.5	137.821330862207
251.221	-9.54155892180719	369	141.026655479987	369	136.989679952532
251.781	-10.5284735767211	369.5	146.156616679133	369.5	136.158029042857
252.341	-2.05354821539531	370	135.326378133182	370	135.326378133182
252.902	-5.34362602356965	370.5	136.365889774289	370.5	134.494727223508
253.462	4.02602951216913	371	141.512540234769	371	133.663076313833
254.023	4.73571196012358	371.5	138.805591306554	371.5	132.831425404158
254.584	7.46244205168424	372	135.574356135457	372	131.999774494484
255.144	0.574784194485318	372.5	142.391034183413	372.5	131.168123584809
255.705	-1.58862769916996	373	158.39611807787	373	130.336472675134
256.266	0.579720554620232	373.5	137.04511899979	373.5	129.50482176546
256.827	-4.3560270536411	374	123.86535947331	374	128.673170855785
257.388	-4.81968343387516	374.5	126.79934705808	374.5	127.84151994611
257.949	14.5687847723152	375	120.294862794803	375	127.009869036436
258.51	-0.296559102420277	375.5	119.204105826564	375.5	126.178218126761
259.071	0.597137006148871	376	124.048633427206	376	125.346567217086
259.632	16.1443160779238	376.5	113.388599729976	376.5	124.514916307412
260.194	1.95377685751239	377	116.587654780735	377	123.683265397737
260.755	3.34932282936697	377.5	109.946524490538	377.5	122.851614488062
261.316	5.38010181481989	378	100.237734188535	378	122.019963578387
261.878	3.09650461450609	378.5	103.884249207872	378.5	121.188312668713
262.439	7.50772626081739	379	107.973637192611	379	120.356661759038
263.001	-0.948774627367428	379.5	104.263610248929	379.5	119.525010849363
263.562	13.3983323871871	380	102.019146211268	380	118.693359939689
264.124	-5.82903526248761	380.5	97.1272492122725	380.5	117.861709030014
264.686	8.26421080151904	381	84.4852542266386	381	117.030058120339
265.247	5.12252486356384	381.5	92.5060797305343	381.5	116.198407210665
265.809	8.85159180629164	382	86.1346452274429	382	115.36675630099
266.371	2.27034413250558	382.5	90.8683682806551	382.5	114.535105391315
266.933	-3.10816192320484	383	89.5993083437852	383	113.703454481641
267.495	5.43508248991249	383.5	84.1227544106952	383.5	112.871803571966
268.057	-0.165685082162929	384	95.6112856021993	384	112.040152662291
268.619	-6.47089317391977	384.5	100.521641868114	384.5	111.208501752616
269.181	15.1764125823328	385	106.577531560775	385	110.376850842942
269.744	4.39223872729605	385.5	124.21589762324	385.5	109.545199933267
270.306	-5.61106343366144	386	147.096390546614	386	108.713549023592
270.868	5.61824451154565	386.5	175.642929043809	386.5	107.881898113918
271.431	0.856192020386165	387	210.201362936893	387	107.050247204243
271.993	0.344921598177246	387.5	254.947857971333	387.5	106.218596294568
272.556	6.41281742275676	388	303.637821468535	388	105.386945384894
273.118	25.6015988094239	388.5	353.597842010506	388.5	104.555294475219
273.681	12.9470777259417	389	439.087259381846	389	103.723643565544
274.244	7.36659182943311	389.5	524.379010538883	389.5	102.89199265587
274.806	6.83872356581738	390	606.584915372962	390	102.060341746195
275.369	3.68623839698412	390.5	706.506623866929	390.5	101.22869083652
275.932	3.86842551738459	391	824.308347445993	391	100.397039926846
276.495	4.39659040367428	391.5	942.914712460506	391.5	99.5653890171708
277.058	6.15905560980924	392	1059.78911577463	392	98.7337381074961
277.621	12.576813880706	392.5	1188.14888223602	392.5	97.9020871978214
278.184	20.9785987868442	393	1326.82899718259	393	97.0704362881468
278.747	18.6230991982258	393.5	1464.87792300043	393.5	96.2387853784721
279.311	5.12084954504088	394	1579.70256254099	394	95.4071344687974
279.874	1.5795799670443	394.5	1682.34297147945	394.5	94.5754835591227
280.437	22.2686607441209	395	1778.25933495326	395	93.743832649448
281.001	0.701754181267841	395.5	1853.92860864923	395.5	92.9121817397733
281.564	12.215087297318	396	1905.34683994204	396	92.0805308300986
282.128	14.2584720003424	396.5	1945.37939357869	396.5	91.2488799204239
282.691	2.96413183019017	397	1981.31084558593	397	90.4172290107492
283.255	-6.4494293901416	397.5	1966.06651656027	397.5	89.5855781010746
283.818	11.805933621947	398	1934.29405874128	398	88.7539271913999
284.382	21.4030687095727	398.5	1887.00490313319	398.5	87.9222762817252
284.946	9.60079086680722	399	1829.71243918933	399	87.0906253720505
285.51	23.7938398782811	399.5	1759.1462217893	399.5	86.2589744623758
286.074	8.54298213298535	400	1657.7532440769	400	85.4273235527011
286.638	21.5323193206209	400.5	1567.16508144391	400.5	84.5956726430264
287.202	13.4910495581369	401	1439.30298778683	401	83.7640217333517
287.766	8.08599434257596	401.5	1320.35384947136	401.5	82.932370823677
288.33	9.94361400789632	402	1203.66768675195	402	82.1007199140024
288.894	20.7619141896771	402.5	1091.65773254238	402.5	81.2690690043277
289.458	14.2324813795563	403	964.894090577538	403	80.437418094653
290.023	19.3951086853877	403.5	829.800468086907	403.5	79.6057671849783
290.587	11.9190385080933	404	732.76672799818	404	78.7741162753036
291.151	7.59710368827835	404.5	607.25961047071	404.5	77.9424653656289
291.716	9.53102871249087	405	519.918203125585	405	77.1108144559542
292.28	25.1859496863885	405.5	446.301169227924	405.5	76.2791635462795
292.845	25.2345256670394	406	370.748673900704	406	75.4475126366048
293.41	16.1071724076312	406.5	293.649446098242	406.5	74.6158617269301
293.974	24.2623596190708	407	236.210866394601	407	73.7842108172555
294.539	22.0343318181804	407.5	206.951447072187	407.5	72.9525599075808
295.104	15.3022072768465	408	169.131508541202	408	72.1209089979061
295.669	19.3345587125726	408.5	143.29697282585	408.5	71.2892580882314
296.234	23.1697434283355	409	111.723642614197	409	70.4576071785567
296.799	31.2597193756012	409.5	89.5024317526103	409.5	69.625956268882
297.364	29.7228913533348	410	81.4867779300667	410	68.7943053592073
297.929	17.4789265618446	410.5	73.65597152405	410.5	67.9626544495326
298.494	21.2413727462073	411	63.1565103756631	411	67.1310035398579
299.059	15.8012235187847	411.5	57.535940364745	411.5	66.2993526301833
299.625	15.9478492927349	412	51.7451891797414	412	65.4677017205086
300.19	27.7892906750038	412.5	41.1674347586902	412.5	64.6360508108339
300.755	21.3433057981868	413	38.6102953105894	413	63.8043999011592
301.321	5.84493527599502	413.5	42.4231910191968	413.5	62.9727489914845
301.886	27.7359689332081	414	39.6915944064919	414	62.1410980818098
302.452	25.4483550043091	414.5	29.8920087403513	414.5	61.3094471721351
303.017	12.5275453332709	415	24.1983284474429	415	60.4777962624604
303.583	14.3149048944675	415.5	25.8401566571176	415.5	59.6461453527858
304.149	32.3576557674282	416	26.5874134184202	416	58.8144944431111
304.714	27.1558849124492	416.5	18.0855537410099	416.5	57.9828435334364
305.28	25.3597488469337	417	16.4097323175555	417	57.1511926237617
305.846	29.307783343797	417.5	24.2367051087556	417.5	56.319541714087
306.412	38.494831649581	418	20.3138339987758	418	55.4878908044123
306.978	54.1294973212221	418.5	13.0884594986318	418.5	54.6562398947376
307.544	50.6108774010624	419	19.2647149402374	419	53.8245889850629
308.11	50.7833786890711	419.5	12.0379618678708	419.5	52.9929380753882
308.676	52.6153831663688	420	14.2161539668482	420	52.1612871657135
309.243	52.9504557316355	420.5	9.18760593667726	420.5	51.3296362560389
309.809	74.3853615033676	421	7.62663340641242	421	50.4979853463642
310.375	97.8170668917801	421.5	8.68657047048545	421.5	49.6663344366895
310.942	105.248762842055	422	12.1033663694753	422	48.8346835270148
311.508	97.9435693435731	422.5	12.3439064610812	422.5	48.0030326173401
312.074	107.493050403069	423	-0.355442602924029	423	47.1713817076654
312.641	144.996585983464	423.5	7.61014932717089	423.5	46.3397307979907
313.208	137.864400494516	424	15.1165652910703	424	45.508079888316
313.774	157.700070151243	424.5	12.8275782081552	424.5	44.6764289786413
314.341	151.199350205747	425	14.311637901248	425	43.8447780689666
314.908	176.214040378389	425.5	11.4880582320184	425.5	43.013127159292
315.475	186.041453406728	426	0.873468374537778	426	42.1814762496173
316.041	193.734364367251	426.5	-0.822126084832047	426.5	41.3498253399426
316.608	215.465895854403	427	4.9489718297673	427	40.5181744302679
317.175	243.70529733904	427.5	13.7347908282582	427.5	39.6865235205932
317.742	254.248163236291	428	12.5164996062488	428	38.8548726109185
318.309	262.484794320617	428.5	8.45241351100168	428.5	38.0232217012438
318.877	267.52065977495	429	6.63858882285912	429	37.1915707915691
319.444	298.702488625393	429.5	9.33349854418566	429.5	36.3599198818944
320.011	318.627038381775	430	12.1757878575529	430	35.5282689722198
320.578	318.32931011401	430.5	8.32487905409687	430.5	34.6966180625451
321.146	332.458641653777	431	8.81530690156769	431	33.8649671528704
321.713	348.508155629605	431.5	4.99293557295768	431.5	33.0333162431957
322.281	339.940862856853	432	8.88081276199829	432	32.201665333521
322.848	350.679517529527	432.5	9.53778866296884	432.5	31.3700144238463
323.416	335.834639954653	433	9.90304797931711	433	30.5383635141716
323.983	357.65686867696	433.5	9.00923879708667	433.5	29.7067126044969
324.551	351.453180627189	434	4.37317924531247	434	28.8750616948223
325.119	359.794539899683	434.5	15.8194496552763	434.5	28.0434107851475
325.687	357.046467816951	435	6.52430107183886	435	27.2117598754729
326.255	339.322178953729	435.5	-0.10654337726146	435.5	26.3801089657982
326.822	345.835154338972	436	0.93511209666746	436	25.5484580561235
327.39	349.540300525311	436.5	2.73773344173658	436.5	24.7168071464488
327.958	341.985904709749	437	6.78385035724369	437	23.8851562367741
328.527	332.954229464682	437.5	8.73732278540378	437.5	23.0535053270994
329.095	347.836278524449	438	2.81305762009906	438	22.2218544174247
329.663	336.040501023243	438.5	3.94254649458979	438.5	21.39020350775
330.231	343.890011176791	439	0.430024282263495	439	20.5585525980754
330.799	327.00683119784	439.5	3.31523447654138	439.5	19.7269016884007
331.368	323.174782171954	440	10.5116713340619	440	18.895250778726
331.936	313.325103875196	440.5	10.3082650172252	440.5	18.0635998690513
332.505	301.242351003886	441	7.93712203099297	441	17.2319489593766
333.073	297.361692177556	441.5	8.56447639375702	441.5	16.4002980497019
333.642	280.519487945659	442	1.03830886703178	442	15.5686471400272
334.21	287.212648849447	442.5	4.64024043408961	442.5	14.7369962303525
334.779	273.41120021139	443	5.48943827204707	443	13.9053453206779
335.348	248.605526940331	443.5	-0.584121430300065	443.5	13.0736944110031
335.916	242.727773488865	444	1.80881124843821	444	12.2420435013285
336.485	252.880256668185	444.5	9.00334118474709	444.5	11.4103925916538
337.054	251.493918638213	445	3.63044775059522	445	10.5787416819791
337.623	235.32725255455	445.5	-2.18755784979731	445.5	9.74709077230439
338.192	238.136416308193	446	10.2519176762585	446	8.91543986262971
338.761	234.534850797651	446.5	6.57699834640854	446.5	8.083788952955
339.33	260.83087450983	447	7.25213804328033	447	7.25213804328033
339.899	295.083281076416	447.5	8.69911776838389	447.5	6.42048713360564
340.469	321.643283478792	448	11.1335656839996	448	5.58883622393095
341.038	394.486173910005	448.5	12.7397135408068	448.5	4.75718531425627
341.607	542.229159847819	449	1.58303717843406	449	3.92553440458158
342.177	803.157777437509	449.5	5.34746363607169	449.5	3.09388349490689
342.746	1184.14313333461	450	4.42268731809273	450	2.2622325852322
343.315	1766.52027117503				
343.885	2569.46530265878				
344.455	3589.42189498062				
345.024	4797.26811736628				
345.594	6231.50310742357				
346.164	7828.73572929003				
346.733	9494.38912765908				
347.303	9960.73313613668				
347.873	9964.88053682581				
348.443	9908.38709289525				
349.013	10059.1338957172				
349.583	9950.71141652231				
350.153	10027.8987551105				
350.723	10021.1271625031				
351.294	10062.9637647492				
351.864	10148.9344914195				
352.434	10072.3401543811				
353.004	10108.1560518927				
353.575	8486.13247475088				
354.145	6888.08979255427				
354.716	5279.06894350461				
355.286	3944.6025869455				
355.857	2829.04176511033				
356.428	1957.35585271961				
356.999	1284.29767769965				
357.569	822.19360466593				
358.14	531.509955610041				
358.711	363.490259950934				
359.282	278.8317678659				
359.853	225.441000501537				
360.424	199.935198826462				
360.995	175.556256184667				
361.566	168.873429812246				
362.137	168.111264491462				
362.709	157.238177977388				
363.28	152.583967104821				
363.851	138.462732610782				
364.423	136.602620285442				
364.994	137.806700811775				
365.566	149.347394186589				
366.137	117.796820996427				
366.709	140.355546317204				
367.281	144.845840375253				
367.852	132.696230340721				
368.424	141.860226915865				
368.996	141.005547215947				
369.568	145.794710423361				
370.14	132.985079152871				
370.712	140.078905247421				
371.284	140.177140434744				
371.856	136.457033283859				
372.428	139.798811100668				
373	158.39611807787				
373.572	133.517887978346				
374.145	123.969157794074				
374.717	126.303703783245				
375.289	116.141158931671				
375.862	125.486865589202				
376.434	113.909110260443				
377.007	116.597681385771				
377.579	108.143396838627				
378.152	99.6030339683666				
378.725	107.201892120329				
379.297	106.008330441525				
379.87	102.144135583508				
380.443	98.538745589778				
381.016	84.4382420006336				
381.589	93.1008283398784				
382.162	84.6125402946542				
382.735	94.2263368693665				
383.308	82.9630040799703				
383.881	93.2707501258526				
384.454	100.225091708851				
385.027	107.214798071924				
385.601	128.6461774374				
386.174	156.166056278925				
386.748	192.150960219176				
387.321	237.170351061858				
387.894	294.45532044943				
388.468	349.280103947372				
389.042	446.702829461032				
389.615	542.960649950988				
390.189	641.281094889254				
390.763	767.358285334543				
391.336	904.828287363599				
391.91	1038.07647702074				
392.484	1183.84990853659				
393.058	1343.22582983425				
393.632	1498.02721853661				
394.206	1622.01859251867				
394.78	1737.85094749143				
395.354	1834.54525772099				
395.928	1899.13142020004				
396.503	1945.63432631077				
397.077	1982.86488108696				
397.651	1955.83772414449				
398.226	1916.78002546488				
398.8	1851.22287877876				
399.375	1781.5721899449				
399.949	1667.25831374022				
400.524	1561.96663343919				
401.098	1413.76459808068				
401.673	1281.38538780187				
402.248	1145.99859006736				
402.822	1015.6789530707				
403.397	852.699370895652				
403.972	739.031410669576				
404.547	596.710727921233				
405.122	502.616068965089				
405.697	416.304115417767				
406.272	329.17351290576				
406.847	248.79030725644				
407.422	212.17524814689				
407.998	169.261178035722				
408.573	139.330347583963				
409.148	103.050204455154				
409.724	84.9044555684406				
410.299	77.6634283137772				
410.874	65.3515131879146				
411.45	57.9743370019797				
412.025	51.2927245673598				
412.601	39.6398899058075				
413.177	39.8258772401513				
413.752	42.5983296216668				
414.328	33.2475546909765				
414.904	24.6176652361225				
415.48	25.7146897904712				
416.056	26.0478604056928				
416.632	16.2341391678808				
417.207	19.2139996688587				
417.784	25.0042225065012				
418.36	12.521421668615				
418.936	19.3707095419427				
419.512	11.9530039744884				
420.088	14.2686951158736				
420.664	7.31263919277727				
421.241	8.78393180353201				
421.817	9.62229664595443				
422.393	14.3916058816744				
422.97	-0.122645546546898				
423.546	8.69745050608907				
424.123	15.2894467464056				
424.699	12.1951828566571				
425.276	14.946067877246				
425.853	3.26678923673754				
426.43	-1.08600317009907				
427.006	5.05713298570353				
427.583	14.4046118627736				
428.16	10.887484934244				
428.737	7.38907016739335				
429.314	7.48916056284314				
429.891	12.4642934970449				
430.468	8.42765825379225				
431.045	8.665323374399				
431.622	4.85464402080106				
432.199	10.6375187094685				
432.777	8.38838465904041				
433.354	11.1064320840272				
433.931	3.54587437304965				
434.509	15.8698720995331				
435.086	4.38883235784858				
435.664	-0.118364154547898				
436.241	1.89100435391059				
436.819	4.72469553558753				
437.396	9.43369941762094				
437.974	2.94167799086964				
438.552	3.88417079748717				
439.129	0				
439.707	6.58262538225115				
440.285	11.7415290423582				
440.863	7.62518904747521				
441.441	9.12191691625901				
442.019	0.932122930391197				
442.597	5.58736874733425				
443.175	3.72153624384204				
443.753	-1.5106923804307				
444.331	7.77952316200112				
444.91	5.45267550461047				
445.488	-2.31679368351194				
446.066	11.1012506005345				
446.644	4.95950135660694				
447.223	9.31657273221222				
447.801	8.48601048176314				
448.38	14.5086525705157				
448.958	1.9339278543063				
449.537	5.56477496840951				
450.115	4.76274263514549				
450.694	12.1167450909092				
451.273	5.54156594960695				
451.852	5.19605136938219				
452.43	4.73373467806172				
453.009	4.49688536651592				
453.588	3.37111272182977				
454.167	11.4545743188412				
454.746	1.34618739202813				
455.325	17.3774543420862				
455.904	0				
456.483	12.5432718468994				
457.062	7.7208265551916				
457.642	6.70797983482447				
458.221	10.8391119727894				
458.8	12.0692074990961				
459.38	11.257655313405				
459.959	8.32617085009191				
460.538	7.10169021714309				
461.118	9.09411272819045				
461.697	4.42774468118208				
462.277	7.73937719174179				
462.856	8.06784724546696				
463.436	2.537143542566				
464.016	4.95235902199421				
464.596	-0.769490386431963				
465.175	7.46777440388511				
465.755	7.68283032320174				
466.335	3.17841221815772				
466.915	-1.96886118655961				
467.495	8.50641151668476				
468.075	12.0704749709137				
468.655	12.1661023093628				
469.235	7.59519448870318				
469.815	2.60089895124563				
470.395	9.09966535940664				
470.976	7.58312239530033				
471.556	7.03150997380516				
472.136	12.1030250384299				
472.716	15.2416866511067				
473.297	-0.108101011262885				
473.877	-1.40498630295977				
474.458	3.23741382741084				
475.038	8.94159461795199				
475.619	3.5559760678016				
476.199	1.93860862008032				
476.78	5.05177599120166				
477.361	1.71772720669225				
477.941	5.90071971733075				
478.522	1.0719506249195				
479.103	-1.6068025440589				
479.684	8.46315675804223				
480.265	6.85790126280187				
480.846	2.35844414199785				
481.427	8.25987212731179				
482.008	11.3787756975488				
482.589	4.61599527176004				
483.17	-3.9740769289292				
483.751	3.44332725453407				
484.332	2.04633288979028				
484.914	7.64850857033255				
485.495	9.25689785229578				
486.076	3.65633856199606				
486.658	3.97711134170127				
487.239	1.39697640586571				
487.82	-6.34005700344761				
488.402	7.30573707672076				
488.984	3.75924513054037				
489.565	5.80615924705975				
490.147	-0.538236408439716				
490.728	0.323381101064652				
491.31	5.28308104479675				
491.892	-3.9861902950717				
492.474	3.87640576144283				
493.055	6.77972301711501				
493.637	-1.50405410868686				
494.219	0.751694310624053				
494.801	0.537803016348002				
495.383	-9.46985887418388				
495.965	2.36717563149654				
496.547	3.76244150138028				
497.129	1.39652501560571				
497.712	-1.61200549677759				
498.294	-7.41412394622079				
498.876	0				
499.458	1.92968732172847				
500.041	0.321097433355163				
500.623	2.35928669091075				
501.205	-1.39578426780396				
501.788	3.43514813940793				
502.37	6.54229210209033				
502.953	3.10613251241709				
503.536	9.11298002265109				
504.118	2.89713406058076				
504.701	2.57406438008773				
505.283	2.35888231691366				
505.866	-1.07209883281879				
506.449	-2.46497732829197				
507.032	0.642763010752492				
507.615	0.535289356776726				
508.198	0.749109070990686				
508.781	1.39133547818979				
509.363	2.35250117868711				
509.947	0.533872849155499				
510.53	2.87967314259513				
511.113	2.87718367456328				
511.696	-8.31249212486135				
512.279	7.66836151415317				
512.862	-1.48903446718298				
513.445	10.4154097966822				
514.029	1.48707642467926				
514.612	-0.955396918763976				
515.196	0.848999774552035				
515.779	-1.8047670055404				
516.362	6.0483179750898				
516.946	2.8621070164506				
517.529	0.211978047819069				
518.113	2.11981319429089				
518.697	-0.212044768078122				
519.28	0.636100090036478				
519.864	-4.02687740075814				
520.448	-0.423504921056727				
521.031	-2.85602266600728				
521.615	0				
522.199	1.58855720758129				
522.783	-8.4633495408666				
523.367	-1.16289198984871				
523.951	0.316995684361184				
524.535	2.00511722248715				
525.119	-0.632313739298394				
525.703	-7.57529313246626				
526.287	-5.57875444310264				
526.871	1.05534639812159				
527.456	0.634186544447279				
528.04	5.18503040811886				
528.624	2.53858810943959				
529.208	-0.528641508940716				
529.793	0.739726476500412				
530.377	8.7786860091868				
530.962	1.05939350875822				
531.546	-1.69389023116896				
532.131	-4.97499585919673				
532.715	3.18239570321656				
533.3	-1.91272893054038				
533.884	-1.59601877895311				
534.469	-2.98277188943103				
535.054	7.89160796185667				
535.639	0.853486882466754				
536.223	0.427176000527872				
536.808	1.81915078212487				
537.393	0.429422291457575				
537.978	-0.323300050814158				
538.563	-5.18571899126468				
539.148	-2.05685769318045				
539.733	0.325039252182766				
540.318	-2.16753714689001				
540.903	2.3838465237889				
541.488	0.757516621559677				
542.073	4.10828146341586				
542.658	1.62642391447624				
543.244	4.67590749484563				
543.829	3.59871519871462				
544.414	4.5817253620332				
545	1.30814929923255				
545.585	8.62591307865077				
546.17	-1.0936515647004				
546.756	-5.14847249211587				
547.341	-0.767803896549805				
547.927	3.95307849480315				
548.512	-0.220002490838605				
549.098	1.87334230620543				
549.684	1.98626677166785				
550.269	0.22085942421279				
550.855	0.552146775720881				
551.441	1.65786038677016				
552.027	-1.10645634319823				
552.612	2.65627239523145				
553.198	-2.10229393330064				
553.784	1.21541017276793				
554.37	-0.110431298825661				
554.956	-4.08576335093157				
555.542	7.19490456236323				
556.128	4.6576690662236				
556.714	2.77035571257894				
557.3	-2.88229447998865				
557.887	2.99756808174297				
558.473	2.44600068166058				
559.059	-2.67131850412996				
559.645	8.77661353491402				
560.232	-0.110967912469334				
560.818	6.87967966912202				
561.404	-3.11110024895331				
561.991	-1.78125417755138				
562.577	-1.11337636146218				
563.164	6.01261843188372				
563.75	3.89741954174133				
564.337	0.891436935795347				
564.923	5.80071314794205				
565.51	-4.4658078066066				
566.097	1.22895769066557				
566.683	2.90548959519533				
567.27	-6.71197628525964				
567.857	2.69013941268059				
568.444	-4.15164944850522				
569.03	5.05288952959609				
569.617	-3.03195421241226				
570.204	0.449575674260653				
570.791	2.36595175740868				
571.378	-2.03091159693679				
571.965	2.93627479803684				
572.552	8.36577456866559				
573.139	4.97991850246005				
573.726	7.48069213064446				
574.313	3.29079310568603				
574.901	2.15801142489458				
575.488	-7.73258629651375				
576.075	0.79695427151765				
576.662	-0.797659431094039				
577.25	-7.07209055041921				
577.837	4.68215611888537				
578.424	5.48509756305027				
579.012	4.80178458125414				
579.599	-3.32268279606494				
580.187	9.641109083972				
580.774	-4.02054134232458				
581.362	4.48374899762701				
581.95	1.38074119574688				
582.537	8.17302405818463				
583.125	3.68421825887262				
583.713	2.18585109127613				
584.3	2.9915094150221				
584.888	2.30334598964875				
585.476	-5.30120912654448				
586.064	2.30618305918107				
586.652	0.6920921834631				
587.239	9.23160379126571				
587.827	1.84722402019858				
588.415	8.78658959803536				
589.003	5.21179490044654				
589.591	0.579453521974308				
590.179	1.85512191920771				
590.768	-3.24679601450712				
591.356	4.63675780774976				
591.944	-3.01205737359647				
592.532	-2.43506014387114				
593.12	6.03544884492637				
593.709	-8.36071191771075				
594.297	-1.85837752043721				
594.885	7.43358402869484				
595.474	-0.813992413412141				
596.062	-8.03457151636154				
596.65	0				
597.239	-6.06248821017837				
597.827	-1.51584443065338				
598.416	-2.45208780396484				
599.004	0.233974997999035				
599.593	-3.15912933936499				
600.182	4.33092529579814				
600.77	-6.79563201941487				
601.359	5.98371679973813				
601.948	-5.52343587600572				
602.536	7.28282290987995				
603.125	1.29154352381676				
603.714	-1.40954919938083				
604.303	2.94187936596876				
604.892	-1.53454738475666				
605.481	-0.473088713546305				
606.07	3.4349292450311				
606.659	0.59214529862503				
607.248	-0.355330554653209				
607.837	-5.33254160542393				
608.426	2.96515750993708				
609.015	0.118728730902687				
609.604	-7.48448949354712				
610.193	0.237757178099497				
610.782	-2.61722884298932				
611.372	-2.73928933474791				
611.961	-0.715572165032995				
612.55	-6.09361747264398				
613.14	10.5328846186516				
613.729	-1.43819220476501				
614.318	-7.92101455914102				
614.908	5.6488814741636				
615.497	6.50112905576567				
616.087	5.66675219277376				
616.676	0				
617.266	-8.20054211449762				
617.855	-2.17157453312596				
618.445	1.93230073000585				
619.035	-0.846442985560087				
619.624	5.69049921776761				
620.214	0				
620.804	-0.485536110101146				
621.393	-0.485933036289636				
621.983	2.06643361551781				
622.573	1.82318053787584				
623.163	7.17395665915135				
623.753	9.74354861978125				
624.343	0				
624.933	-1.58666351798111				
625.523	3.66970339839665				
626.113	7.72275452659555				
626.703	0.613511917920022				
627.293	-0.614116165784364				
627.883	6.02435299293652				
628.473	2.3377890729169				
629.063	-0.615695165541253				
629.653	-1.23309138888834				
630.243	5.80335607011348				
630.834	-0.741824036909134				
631.424	-0.247565453641252				
632.014	-7.55913900317335				
632.605	6.94372041299464				
633.195	5.70690124374319				
633.785	3.47530271743605				
634.376	-1.61410177055229				
634.966	3.22917128619388				
635.557	-1.98613483924929				
636.147	10.0526903930632				
636.738	5.83826469260729				
637.328	3.10806112033424				
637.919	-0.995369346317108				
638.51	9.33534167307869				
639.1	-5.60219276061262				
639.691	7.58934607633486				
640.282	8.09232073487114				
640.872	-6.48716628558193				
641.463	-3.74833392490196				
642.054	-1.25116573823296				
642.645	4.13414821613095				
643.236	-6.64784546629613				
643.826	-3.39050818176274				
644.417	10.4416932751498				
645.008	-3.02562260301777				
645.599	0.631369784495161				
646.19	4.42541562600945				
646.781	4.42829844790574				
647.372	4.17967708615872				
647.963	3.17053469054774				
648.555	6.22297144488696				
649.146	5.85261031864341				
649.737	1.91433478111287				
650.328	9.08442574994721				
650.919	-6.28304580324425				
651.51	5.90920274549368				
652.102	-1.02934874630376				
652.693	3.21927988899503				
653.284	0.38685235520295				
653.876	-5.0393476139381				
654.467	-1.55283297255617				
655.059	8.81215761611225				
655.65	-5.58762619425949				
656.241	8.07100802429887				
656.833	-4.94889055953277				
657.424	3.12790922749953				
658.016	6.13074837064136				
658.608	2.74211871424586				
659.199	-1.17685080465095				
659.791	-7.46938068787803				
660.382	2.10096441969669				
660.974	10.7889772048317				
661.566	8.17890016858887				
662.158	3.30489359324367				
662.749	-3.57154895018485				
663.341	-3.57465610842225				
663.933	9.40981714275502				
664.525	3.71039445890457				
665.117	-4.50577671716029				
665.709	4.51260054699673				
666.301	-5.0496567340001				
666.892	7.71460251690992				
667.484	5.46062869719696				
668.076	0.666790935635623				
668.669	5.47060329681448				
669.261	6.00861138903783				
669.853	11.6276259346436				
670.445	-4.01394129158423				
671.037	9.77792083143922				
671.629	9.51185459004107				
672.221	7.77282050146299				
672.813	8.84993374680156				
673.406	7.51480110626587				
673.998	-3.89493574002783				
674.59	7.6708986301567				
675.183	2.6956601362769				
675.775	-8.76492184939384				
676.367	0.675492933130382				
676.96	7.45087035151933				
677.552	4.06447816630036				
678.144	7.04632674200416				
678.737	1.8990539837724				
679.329	6.24289939437687				
679.922	8.41503657765555				
680.515	7.06345638262349				
681.107	5.43959593142486				
681.7	3.81588708816806				
682.292	13.7934993922546				
682.885	7.52694947253818				
683.478	11.897894005051				
684.07	7.65081048609961				
684.663	7.66481003168417				
685.256	14.122864140321				
685.849	11.6747772702769				
686.441	11.9626365924416				
687.034	0.963413346168008				
687.627	4.27361871283692				
688.22	19.4687557703357				
688.813	25.1662255293133				
689.406	35.150258566569				
689.999	26.9990806022357				
690.592	32.0465718947432				
691.184	47.6513415626978				
691.777	57.8028421844503				
692.371	66.8681895388945				
692.964	71.0885534445568				
693.557	81.1780100311445				
694.15	109.714582553232				
694.743	124.799999167461				
695.336	135.673047684355				
695.929	144.983531434536				
696.522	154.023849671377				
697.116	167.25094953949				
697.709	177.517934142805				
698.302	188.001622007267				
698.895	201.801005232697				
699.489	209.897448677275				
700.082	214.669664197336				
700.675	224.375149481988				
701.269	225.305073949229				
701.862	226.726589639841				
702.456	219.31388221929				
703.049	213.294916431313				
703.643	215.810804543108				
704.236	206.112489455969				
704.83	186.385357082395				
705.423	176.069984471215				
706.017	166.167776537326				
706.61	159.229112602234				
707.204	135.021977764037				
707.798	134.132304144102				
708.391	118.149268207682				
708.985	91.9081749719341				
709.579	89.0612293260008				
710.172	82.7060504052625				
710.766	59.1210569382414				
711.36	45.930290688137				
711.954	42.3269821220041				
712.547	33.3373736115928				
713.141	18.5965776713794				
713.735	19.4784953364078				
714.329	12.5964219246484				
714.923	1.75772626866516				
715.517	21.9068499602015				
716.111	8.11386765457232				
716.705	17.3999320752582				
717.299	4.13151139931822				
717.893	8.42536629236056				
718.487	2.66759504449131				
719.081	2.22853638513005				
719.675	4.75695604856073				
720.269	-0.74437360270201				
720.863	7.31357010623722				
721.457	3.13939350907906				
722.051	2.5447859922412				
722.646	0				
723.24	-3.30242406707141				
723.834	3.30512443316091				
724.428	7.52669950589319				
725.022	-2.86710165600268				
725.617	5.441737511852				
726.211	-2.57196174696803				
726.805	2.57031491140094				
727.4	9.68219671800955				
727.994	9.39078056197848				
728.588	3.6400975510152				
729.183	-5.77244188524459				
729.777	1.52205626640189				
730.372	9.91572171504412				
730.966	3.82298401622766				
731.561	4.89696408702				
732.155	-2.60277317252215				
732.75	-9.18719371371301				
733.344	4.59711789103382				
733.939	4.60286813265139				
734.533	1.23145990756986				
735.128	11.5827982118552				
735.723	12.5398606434493				
736.317	3.87843554214215				
736.912	3.10835615277158				
737.507	-1.0882265816291				
738.101	-1.08802921914216				
738.696	-0.931542706874099				
739.291	-9.79426065831038				
739.886	-8.11573699206296				
740.48	2.81430699602014				
741.075	2.81917922494301				
741.67	10.8588685138794				
742.265	4.73658796583427				
742.86	8.22097488176097				
743.454	3.95686360071262				
744.049	3.80284723049749				
744.644	0.952282583947172				
745.239	-0.635448177871292				
745.834	6.83017327614548				
746.429	-0.954582456760851				
747.024	-2.71076089603999				
747.619	1.1181395819324				
748.214	-3.20011002366258				
748.809	-2.08344932927528				
749.404	3.69352214960942				
749.999	-4.34538471831826				
750.594	1.61179975008995				
751.19	7.0997748912623				
751.785	7.58606498837434				
752.38	14.721691317773				
752.975	-7.95423731184828				
753.57	10.9504685949889				
754.165	4.60058775892347				
754.761	-6.08579659412852				
755.356	1.48257115303503				
755.951	5.61101040467				
756.546	-9.60523360175974				
757.142	6.15080674144384				
757.737	-4.34077998680352				
758.332	-0.167589821026918				
758.928	2.52248243111633				
759.523	-1.34360812514531				
760.118	-13.599604708265				
760.714	-2.70285850715905				
761.309	-5.09069674675069				
761.905	-11.9141889361516				
762.5	10.0594164816197				
763.096	-16.0511147710995				
763.691	-4.95981401731082				
764.287	-1.37125345940669				
764.882	-20.4560128901864				
765.478	4.99671290564506				
766.073	-6.90454416280856				
766.669	-13.452229649111				
767.264	-11.7238930493973				
767.86	-1.20732215064289				
768.456	-3.97060552181439				
769.051	6.91076452598675				
769.647	8.27089923000142				
770.243	8.26257101368619				
770.838	5.86082827128252				
771.434	-3.81272763651798				
772.03	-0.523360707028159				
772.625	9.09451219536201				
773.221	-4.37831373421208				
773.817	7.00100950857994				
774.413	2.10674060601842				
775.009	-1.76386260593175				
775.604	-2.12870130449017				
776.2	5.34963686719788				
776.796	-7.88025634369601				
777.392	7.34716849638256				
777.988	7.87386549146364				
778.584	2.68760507257608				
779.18	12.3822673832532				
779.775	2.33794699960679				
780.371	16.2085036839053				
780.967	5.58817480993738				
781.563	-0.180942879914389				
782.159	17.0619213603465				
782.755	5.45058140165181				
783.351	8.75451110144542				
783.947	6.97112108194012				
784.543	9.09641476016771				
785.139	7.23414452743642				
785.735	8.01155078411546				
786.332	16.1325551997302				
786.928	6.46022543164497				
787.524	7.38334390451534				
788.12	-1.66064032770824				
788.716	23.1043907612992				
789.312	12.6492265176756				
789.908	5.07564474037102				
790.505	10.2903886827817				
791.101	12.2642578775667				
791.697	21.2971113746078				
792.293	6.68092126171964				
792.889	20.5725824287147				
793.486	9.39467090569874				
794.082	26.2088260181495				
794.678	28.1196119470956				
795.275	9.84798701283123				
795.871	3.04993445108293				
796.467	21.3147773029557				
797.064	10.9977349680638				
797.66	16.2792213650872				
798.256	18.2046514180428				
798.853	12.9778484958257				
799.449	31.4915360558383				
800.045	17.1429746103372				
800.642	18.4616649649785				
801.238	9.23083248248925				
801.835	5.43959771289545				
802.431	25.7144619155058				
803.028	7.41763324485744				
803.624	10.5495228371306				
804.221	23.0770812062231				
804.817	12.8572309577529				
805.414	15.6594479613657				
806.01	19.4506827309595				
806.607	6.09894289021611				
807.203	0.164836294330165				
807.8	3.95607106392397				
808.397	-3.7912347695938				
808.993	5.93410659588595				
809.59	10.0550139541401				
810.186	8.40665101083843				
810.783	9.89017765980991				
811.38	7.74730583351777				
811.976	6.09894289021611				
812.573	11.5385406031116				
813.17	6.42861547887644				
813.766	6.42861547887644				
814.363	17.4726471989975				
814.96	0.824181471650826				
815.557	4.78025253557479				
816.153	-0.989017765980992				
816.75	3.62639847526364				
817.347	11.3737043087814				
817.944	2.80221700361281				
818.54	2.96705329794297				
819.137	-9.72534136547975				
819.734	9.06599618815909				
820.331	9.06599618815909				
820.928	8.73632359949876				
821.525	2.63738070928264				
822.121	16.1539568443562				
822.718	4.78025253557479				
823.315	-6.09894289021611				
823.912	4.2857436525843				
824.509	13.8462487237339				
825.106	13.8462487237339				
825.703	9.56050507114958				
826.3	0.494508882990496				
826.897	-13.0220672520831				
827.494	3.2967258866033				
828.091	-0.659345177320661				
828.688	9.89017765980991				
