Wavelength, nm	Sc/Rc	Wavelength	Signal	Baseline_Result	Baseline_Y
Raw CCD	counts/uA	nm	Sc/Rc		
	Fully Corrected Emission Spectrum		Water Raman		Baseline of "Signal"
246.74	0.654972746642008	365	129.292455188942	365	129.292455188942
247.3	9.66084801296962	365.5	131.292245810868	365.5	128.601416051515
247.86	-1.14620230662351	366	143.206497469908	366	127.910376914089
248.42	-0.163743186660502	366.5	142.347027490573	366.5	127.219337776663
248.98	-1.96491823992603	367	139.26927059019	367	126.528298639237
249.54	-2.61989098656803	367.5	133.925208258236	367.5	125.83725950181
250.1	-6.38557765006265	368	130.474373179487	368	125.146220364384
250.66	3.4302783919734	368.5	138.521945064996	368.5	124.455181226958
251.221	-0.932290260774244	369	135.570288201307	369	123.764142089532
251.781	12.5503851281936	369.5	136.522224853309	369.5	123.073102952106
252.341	-6.99404627290502	370	133.227039491592	370	122.382063814679
252.902	7.74708796839955	370.5	139.636406378392	370.5	121.691024677253
253.462	7.85582875085853	371	145.226744143244	371	120.999985539827
254.023	7.41284772073606	371.5	131.810596906795	371.5	120.308946402401
254.584	-3.99159118512702	372	124.84996881246	372	119.617907264974
255.144	-5.13875275021292	372.5	137.600001880431	372.5	118.926868127548
255.705	4.44735231015664	373	131.723659764491	373	118.235828990122
256.266	-0.863814228885565	373.5	140.433222906492	373.5	117.544789852696
256.827	5.04833020026237	374	135.856023392671	374	116.853750715269
257.388	4.20739190810246	374.5	128.442646780287	374.5	116.162711577843
257.949	9.3557477163561	375	128.273282620987	375	115.471672440417
258.51	-0.883777434953922	375.5	126.904180656307	375.5	114.780633302991
259.071	-7.56300811891881	376	114.204920086712	376	114.089594165565
259.632	7.42465530499668	376.5	104.896434110338	376.5	113.398555028138
260.194	6.86751846675043	377	118.831696313401	377	112.707515890712
260.755	7.41038555245281	377.5	108.484932742774	377.5	112.016476753286
261.316	-12.3685236682009	378	100.736363290295	378	111.32543761586
261.878	17.071634739634	378.5	95.4381194456039	378.5	110.634398478433
262.439	0	379	100.430701951869	379	109.943359341007
263.001	-8.63942614969339	379.5	101.729468390426	379.5	109.252320203581
263.562	8.29885328822605	380	91.8845160704423	380	108.561281066155
264.124	7.66834129858764	380.5	95.6752994782666	380.5	107.870241928728
264.686	0.315746419191191	381	97.48601456448	381	107.179202791302
265.247	1.11312139989645	381.5	85.3232698108654	381.5	106.488163653876
265.809	12.3100497822883	382	93.4933054257368	382	105.79712451645
266.371	6.76586521038539	382.5	91.8762667252454	382.5	105.106085379024
266.933	2.76254493986841	383	90.0429344539295	383	104.415046241597
267.495	9.16200706807158	383.5	90.5125916397057	383.5	103.724007104171
268.057	13.496080353834	384	88.8682575794544	384	103.032967966745
268.619	0.49446012394997	384.5	104.944498717546	384.5	102.341928829319
269.181	3.97602740847711	385	109.639017940315	385	101.650889691892
269.744	-9.56528336098789	385.5	120.551607516675	385.5	100.959850554466
270.306	-3.88480720092376	386	145.130427974852	386	100.26881141704
270.868	4.22802065664466	386.5	190.839008150033	386.5	99.5777722796138
271.431	-7.14431932118249	387	221.304468583522	387	98.8867331421875
271.993	15.5898588036713	387.5	256.374184421554	387.5	98.1956940047613
272.556	10.8467116823468	388	320.967282815748	388	97.5046548673351
273.118	0.519016784933829	388.5	372.338753171443	388.5	96.8136157299088
273.681	15.1206229387996	389	447.105642801163	389	96.1225765924826
274.244	15.5066405073424	389.5	518.958492243485	389.5	95.4315374550564
274.806	18.4640387439396	390	619.138044489631	390	94.7404983176302
275.369	12.9034617571072	390.5	723.978747164333	390.5	94.0494591802039
275.932	10.8296306116268	391	839.746336318558	391	93.3584200427777
276.495	10.8312376266337	391.5	964.634292263702	391.5	92.6673809053515
277.058	12.0616179232794	392	1074.87834455484	392	91.9763417679252
277.621	2.63945304108722	392.5	1199.96209054315	392.5	91.285302630499
278.184	17.1307587739094	393	1336.96385335862	393	90.5942634930728
278.747	10.042640321499	393.5	1458.96119185105	393.5	89.9032243556466
279.311	11.9278817873781	394	1557.15097835958	394	89.2121852182203
279.874	9.41463013737231	394.5	1669.83373851103	394.5	88.5211460807941
280.437	17.2439187583345	395	1779.93345380494	395	87.8301069433679
281.001	24.5727932018398	395.5	1839.56457300132	395.5	87.1390678059416
281.564	-5.20032139643301	396	1880.4245772355	396	86.4480286685154
282.128	3.97280607418831	396.5	1945.06853960691	396.5	85.7569895310892
282.691	22.8629844166052	397	1954.81987356267	397	85.065950393663
283.255	13.505932237842	397.5	1960.83246854895	397.5	84.3749112562367
283.818	21.0407710406305	398	1927.67968806779	398	83.6838721188105
284.382	9.43034205143581	398.5	1863.71317615264	398.5	82.9928329813843
284.946	17.8821065020187	399	1800.99872411778	399	82.3017938439581
285.51	0	399.5	1728.92031202752	399.5	81.6107547065318
286.074	23.082816418114	400	1635.71757867015	400	80.9197155691056
286.638	19.5368919867154	400.5	1535.20090940246	400.5	80.2286764316794
287.202	16.2494206097808	401	1433.68470838828	401	79.5376372942531
287.766	13.2199460407383	401.5	1322.68741808763	401.5	78.8465981568269
288.33	18.5834190447364	402	1182.82932805803	402	78.1555590194007
288.894	15.2585782105424	402.5	1053.61991824104	402.5	77.4645198819744
289.458	10.4788263497597	403	939.641634465355	403	76.7734807445482
290.023	13.9970230260639	403.5	814.443056074101	403.5	76.082441607122
290.587	15.6222191994969	404	704.716735106152	404	75.3914024696958
291.151	-2.29682894897475	404.5	608.85940639757	404.5	74.7003633322695
291.716	14.0384975652711	405	517.887672356825	405	74.0093241948433
292.28	15.9211370851592	405.5	436.234409011825	405.5	73.3182850574171
292.845	24.4202884960304	406	369.666089608897	406	72.6272459199909
293.41	17.7781756731107	406.5	302.832708056808	406.5	71.9362067825646
293.974	20.7046137143325	407	237.904826341795	407	71.2451676451384
294.539	14.8067314511008	407.5	193.92859564979	407.5	70.5541285077122
295.104	6.24030012786238	408	160.409727602504	408	69.8630893702859
295.669	25.7142761745755	408.5	133.925449831776	408.5	69.1720502328597
296.234	14.9762254616819	409	118.119633249662	409	68.4810110954335
296.799	13.9579065646718	409.5	94.4346515593146	409.5	67.7899719580072
297.364	28.2693683868301	410	73.0358763792002	410	67.098932820581
297.929	9.94427251788956	410.5	62.7715164730169	410.5	66.4078936831548
298.494	8.81812405272074	411	56.4366853188742	411	65.7168545457286
299.059	20.8762626852148	411.5	52.6098098076993	411.5	65.0258154083023
299.625	27.7628732894796	412	49.9693680969114	412	64.3347762708761
300.19	32.6240988328128	412.5	47.8519961975287	412.5	63.6437371334499
300.755	23.7145703701302	413	33.4796389621484	413	62.9526979960237
301.321	13.1815858898916	413.5	34.2830333255403	413.5	62.2616588585974
301.886	29.5871323222758	414	33.469845754098	414	61.5706197211712
302.452	30.8972826421316	414.5	28.1043755159211	414.5	60.879580583745
303.017	9.17779606215714	415	32.1790846790688	415	60.1885414463187
303.583	9.68833527545087	415.5	21.3758710472932	415.5	59.4975023088925
304.149	17.0907091282577	416	17.7939477387026	416	58.8064631714663
304.714	23.5254081595171	416.5	18.3211725051451	416.5	58.1154240340401
305.28	33.1715166464275	417	19.6027876227517	417	57.4243848966138
305.846	30.9816709952374	417.5	26.5336734644142	417.5	56.7333457591876
306.412	46.0118212634274	418	19.2909314800175	418	56.0423066217614
306.978	33.4123291127641	418.5	5.60141253986643	418.5	55.3512674843351
307.544	46.085648273595	419	14.9639271895748	419	54.6602283469089
308.11	43.4616947797701	419.5	16.6571883745703	419.5	53.9691892094827
308.676	58.682408980575	420	5.40988930102534	420	53.2781500720565
309.243	69.7137204944353	420.5	16.6611085708226	420.5	52.5871109346302
309.809	74.8313829432379	421	20.373299703917	421	51.896071797204
310.375	92.4666989574942	421.5	14.562783158394	421.5	51.2050326597778
310.942	99.2053534996351	422	6.68549378698115	422	50.5139935223515
311.508	112.045093830699	422.5	2.81172245477974	422.5	49.8229543849253
312.074	125.098812577766	423	16.9542847389927	423	49.1319152474991
312.641	122.140466899001	423.5	14.5191274357706	423.5	48.4408761100729
313.208	132.10374660999	424	6.96060616013805	424	47.7498369726466
313.774	159.940739725699	424.5	6.29853636751002	424.5	47.0587978352204
314.341	165.858476998531	425	11.307334638249	425	46.3677586977942
314.908	185.858496894822	425.5	13.3847794818937	425.5	45.6767195603679
315.475	206.143760345402	426	9.95725956306139	426	44.9856804229417
316.041	209.573708511821	426.5	5.47567180069804	426.5	44.2946412855155
316.608	221.450260239676	427	5.06364469616868	427	43.6036021480893
317.175	241.298030808619	427.5	15.7889130105556	427.5	42.912563010663
317.742	260.484397920896	428	16.5866650813913	428	42.2215238732368
318.309	263.117411031611	428.5	11.3266019151002	428.5	41.5304847358106
318.877	276.937593183611	429	7.3580310164623	429	40.8394455983843
319.444	298.139863594084	429.5	5.560113417098	429.5	40.1484064609581
320.011	310.678983813351	430	8.0114553834292	430	39.4573673235319
320.578	326.832860155777	430.5	11.3455778887772	430.5	38.7663281861057
321.146	343.292383008157	431	5.21652776693999	431	38.0752890486794
321.713	331.234954054658	431.5	2.00472630647163	431.5	37.3842499112532
322.281	349.160565927399	432	8.03991976463215	432	36.693210773827
322.848	355.534906770953	432.5	4.40885186926091	432.5	36.0021716364007
323.416	343.052304942957	433	-2.03251856827197	433	35.3111324989745
323.983	365.569221430848	433.5	0.736075999829458	433.5	34.6200933615483
324.551	351.85885010542	434	8.87620903239628	434	33.9290542241221
325.119	356.280082661566	434.5	19.8199995264751	434.5	33.2380150866958
325.687	356.938851712448	435	5.56740093387636	435	32.5469759492696
326.255	345.155233337078	435.5	6.57334671916102	435.5	31.8559368118434
326.822	356.33148348097	436	8.42743143157578	436	31.1648976744171
327.39	337.644905358996	436.5	11.5384318498072	436.5	30.4738585369909
327.958	354.537948161836	437	10.0843403564214	437	29.7828193995647
328.527	347.552795647596	437.5	2.36500790903389	437.5	29.0917802621385
329.095	350.759955301445	438	10.9488100184537	438	28.4007411247122
329.663	346.73909257804	438.5	7.13334083347816	438.5	27.709701987286
330.231	350.452712654994	439	5.84158914549224	439	27.0186628498598
330.799	354.815806498336	439.5	2.55286127142091	439.5	26.3276237124336
331.368	326.606261739196	440	4.82685916089205	440	25.6365845750073
331.936	319.783614720512	440.5	10.0948530852086	440.5	24.9455454375811
332.505	312.048336687327	441	12.7971645290657	441	24.2545063001549
333.073	312.949025050824	441.5	16.6327914942966	441.5	23.5634671627286
333.642	293.912501709581	442	13.1177126632134	442	22.8724280253024
334.21	307.116031223835	442.5	6.40436550824591	442.5	22.1813888878762
334.779	289.967033157209	443	9.26233732370104	443	21.49034975045
335.348	263.519088669226	443.5	5.70946819624096	443.5	20.7993106130237
335.916	252.75605518752	444	6.50156769119162	444	20.1082714755975
336.485	254.152837080776	444.5	14.465955174262	444.5	19.4172323381713
337.054	238.358713627866	445	11.0446445827307	445	18.726193200745
337.623	253.424711341898	445.5	5.77326973544885	445.5	18.0351540633188
338.192	240.816561294406	446	12.032165547327	446	17.3441149258926
338.761	252.148741504006	446.5	14.1583205580847	446.5	16.6530757884663
339.33	255.989346569862	447	10.6989584732115	447	15.9620366510401
339.899	282.651797052686	447.5	10.5709222581109	447.5	15.2709975136139
340.469	341.269081193112	448	16.9411355158091	448	14.5799583761877
341.038	432.430999078383	448.5	18.2503789867963	448.5	13.8889192387614
341.607	611.443786439654	449	11.0494861011182	449	13.1978801013352
342.177	881.590075977239	449.5	14.9416416871873	449.5	12.506840963909
342.746	1328.69699721451	450	11.8158018264828	450	11.8158018264828
343.315	1943.41539997107				
343.885	2792.78308015439				
344.455	3841.35555909187				
345.024	5089.48452703618				
345.594	6603.68608867601				
346.164	8197.98842044305				
346.733	9844.11570850524				
347.303	9896.15430995774				
347.873	9874.15560138703				
348.443	9823.2559179732				
349.013	9996.05533882694				
349.583	9867.05719984068				
350.153	9942.72241088016				
350.723	9947.39333006881				
351.294	9990.43742484497				
351.864	10065.8981740569				
352.434	9997.91432581231				
353.004	10006.2134586005				
353.575	8393.73370232376				
354.145	6701.44775823275				
354.716	5189.92116780309				
355.286	3869.29690457544				
355.857	2786.4467436007				
356.428	1900.16638300542				
356.999	1278.11901492275				
357.569	813.398743184389				
358.14	536.350046437152				
358.711	368.287968684301				
359.282	258.51718865398				
359.853	208.657858129876				
360.424	195.587382692174				
360.995	187.80683315925				
361.566	159.533626032783				
362.137	152.562575876699				
362.709	165.432822759832				
363.28	144.690098771269				
363.851	147.42896233392				
364.423	142.891515353391				
364.994	129.371254628728				
365.566	132.652543474177				
366.137	144.892422270168				
366.709	139.924512503618				
367.281	137.897008993689				
367.852	129.156662039021				
368.424	138.094447615093				
368.996	135.584229643609				
369.568	136.386480298276				
370.14	133.42257469362				
370.712	143.755412113909				
371.284	140.068594450867				
371.856	122.751800513969				
372.428	137.230228945021				
373	131.723659764491				
373.572	141.168220379498				
374.145	132.821728616498				
374.717	127.756248821021				
375.289	128.407239807655				
375.862	119.143311375253				
376.434	104.101426916576				
377.007	118.889459699203				
377.579	106.303882897422				
378.152	99.4205021798113				
378.725	95.4146571551146				
379.297	104.360896408254				
379.87	93.1549629064184				
380.443	94.9048068804324				
381.016	97.2297054725747				
381.589	84.8026051266784				
382.162	96.1035022724731				
382.735	88.2796542009519				
383.308	92.6949679377394				
383.881	86.7842531217101				
384.454	103.8824556762				
385.027	109.904507955423				
385.601	124.260322661312				
386.174	158.798554117148				
386.748	211.017184880218				
387.321	237.269544642817				
387.894	309.13070500541				
388.468	368.349996461462				
389.042	453.351705521675				
389.615	538.475581884292				
390.189	660.676503064096				
390.763	780.547660965831				
391.336	926.347540129685				
391.91	1054.39469318645				
392.484	1195.67155012755				
393.058	1352.34958996699				
393.632	1486.66140464175				
394.206	1599.45966153091				
394.78	1736.50958127871				
395.354	1827.84833903601				
395.928	1871.83024026564				
396.503	1945.30813393877				
397.077	1954.97919323827				
397.651	1957.64437607237				
398.226	1899.04931461724				
398.8	1825.93670902646				
399.375	1749.17449870196				
399.949	1645.7679008316				
400.524	1530.35541187399				
401.098	1413.20173679551				
401.673	1277.81900465585				
402.248	1113.27252569854				
402.822	982.57369092427				
403.397	839.36357336701				
403.972	710.410440397901				
404.547	600.158118346276				
405.122	496.775350083483				
405.697	408.263566124809				
406.272	334.901670251338				
406.847	255.426702860254				
407.422	199.868673407408				
407.998	160.531826583654				
408.573	131.080524302127				
409.148	112.668714428475				
409.724	82.9140976087604				
410.299	66.2933532768441				
410.874	57.7050100442416				
411.45	52.9621233206169				
412.025	49.925825971293				
412.601	45.9184781705245				
413.177	30.4715273884413				
413.752	37.2175459259087				
414.328	27.310849970103				
414.904	32.8170631039593				
415.48	21.7504758368879				
416.056	17.797036978921				
416.632	18.5202576930958				
417.207	21.7235445804038				
417.784	26.3362010703075				
418.36	6.4679608141683				
418.936	13.6557925772825				
419.512	16.4500744299026				
420.088	5.29987063525777				
420.664	20.930589054445				
421.241	16.8368781643662				
421.817	10.9064783363601				
422.393	1.22189472781017				
422.97	16.4473504751704				
423.546	13.7506255656893				
424.123	5.95371762718123				
424.699	7.99544513689148				
425.276	13.3984701508569				
425.853	11.1776548701818				
426.43	6.11320775117479				
427.006	5.14320618379509				
427.583	17.0516632567796				
428.16	14.8561605170095				
428.737	9.23428128275706				
429.314	5.90436221121318				
429.891	6.95730070817471				
430.468	11.437489211318				
431.045	4.59871946108573				
431.622	2.82289789647766				
432.199	8.92322441104154				
432.777	-0.821539452184876				
433.354	-0.234740001356226				
433.931	6.92730799575444				
434.509	19.7646125624554				
435.086	3.77057550557854				
435.664	8.70086270065558				
436.241	8.33568491814444				
436.819	13.3760869382763				
437.396	1.99136726726104				
437.974	10.7535868089371				
438.552	6.66453157687893				
439.129	5.49543200004946				
439.707	1.98504533565694				
440.285	8.63111239070084				
440.863	11.6532658482218				
441.441	16.4964406714362				
442.019	12.8474394366549				
442.597	6.12847419756686				
443.175	9.70424955000522				
443.753	3.57853093377404				
444.331	12.9183365186771				
444.91	12.3312177921771				
445.488	5.75357481364685				
446.066	12.865571764646				
446.644	13.40496903198				
447.223	9.71181679095357				
447.801	13.8976724037522				
448.38	19.5192084699266				
448.958	11.1876001799674				
449.537	15.1170385498508				
450.115	10.138197062533				
450.694	4.49958624514441				
451.273	9.88620231253862				
451.852	11.7818990913314				
452.43	7.61331729900988				
453.009	6.58891996968825				
453.588	6.25101357821056				
454.167	4.79686651858767				
454.746	7.91212275989337				
455.325	5.79119511161986				
455.904	7.23690682204093				
456.483	1.78001306578268				
457.062	12.7827101522906				
457.642	8.32937004765841				
458.221	8.32517990643169				
458.8	8.54783477858309				
459.38	2.65734664399432				
459.959	10.4765443440176				
460.538	15.9830680205738				
461.118	1.43218865340437				
461.697	10.7760364036754				
462.277	11.0927632099304				
462.856	10.8687699556029				
463.436	11.5058020307023				
464.016	12.1348100302015				
464.596	10.373830772651				
465.175	10.5819183639244				
465.755	11.0117152124705				
466.335	14.1535691602748				
466.915	18.580144972625				
467.495	3.25000056395735				
468.075	0.648131347290974				
468.655	2.80554465125145				
469.235	3.98798006538133				
469.815	6.24382362790941				
470.395	9.57737599235861				
470.976	0.968507371683927				
471.556	2.68649257510232				
472.136	7.08484315243123				
472.716	6.01329262817165				
473.297	11.8122556388876				
473.877	3.65021168121291				
474.458	4.39512483390873				
475.038	4.38764150771093				
475.619	6.74366261570177				
476.199	2.03273905252438				
476.78	9.39591965059323				
477.361	6.61205255279645				
477.941	-4.04982529685915				
478.522	2.02319982236058				
479.103	2.87306473335626				
479.684	5.85299804146794				
480.265	4.25776454124325				
480.846	1.81034868454124				
481.427	4.0492686476583				
482.008	5.33175360262131				
482.589	1.38627900984615				
483.17	5.54815115810949				
483.751	-1.17579444053471				
484.332	7.59611319345624				
484.914	-2.4612551643914				
485.495	5.34622730869853				
486.076	8.54609799139792				
486.658	5.4456107758875				
487.239	4.48337849904684				
487.82	11.3150743427985				
488.402	5.65641663547985				
488.984	10.1360000085163				
489.565	1.17489285843987				
490.147	4.27733685971339				
490.728	2.14157738376262				
491.31	-9.53216596102303				
491.892	8.7756754064671				
492.474	3.63677172713182				
493.055	-2.13802014518697				
493.637	-6.72336005551128				
494.219	-2.88016509483003				
494.801	3.4191141721666				
495.383	-2.13796812438183				
495.965	3.52721665026593				
496.547	6.19355645926809				
497.129	-1.17383876557968				
497.712	-1.60131552355763				
498.294	3.308893892177				
498.876	-6.18664506007407				
499.458	10.6493924978446				
500.041	9.67536521281352				
500.623	6.17869028231003				
501.205	2.45308828331298				
501.788	0.959728511920996				
502.37	2.98310487970359				
502.953	4.89429574513959				
503.536	1.70400894658314				
504.118	8.20740658675544				
504.701	2.34391165982478				
505.283	6.39065304317619				
505.866	2.12997847366224				
506.449	6.81358161861193				
507.032	7.44917301668513				
507.615	6.38087518918689				
508.198	-3.50809504577939				
508.781	2.23263740950997				
509.363	0.849782046288359				
509.947	6.68218931114792				
510.53	4.66168048916594				
511.113	2.32882524079993				
511.696	6.98700373119057				
512.279	1.37538356419274				
512.862	6.86752844700193				
513.445	1.68919841192182				
514.029	-0.316546053301174				
514.612	2.5308299427583				
515.196	4.84937551201129				
515.779	5.27293746854569				
516.362	-0.105407170335825				
516.946	1.05301000999187				
517.529	4.63259105797262				
518.113	3.05334577560471				
518.697	3.26489827864564				
519.28	-6.52944535511574				
519.864	-0.947409457801877				
520.448	-0.31552234425387				
521.031	6.93509183827554				
521.615	9.99161927734712				
522.199	1.15721666946701				
522.783	-1.15599344504354				
523.367	7.77121293643874				
523.951	4.09361596265008				
524.535	7.3382854591538				
525.119	2.30310874533511				
525.703	-0.731602838732438				
526.287	9.61965726349094				
526.871	1.15318268502374				
527.456	2.51992381039607				
528.04	1.68184359562131				
528.624	-0.210146127276994				
529.208	7.14184737362265				
529.793	6.50841456515987				
530.377	7.98500902032331				
530.962	5.57755128935107				
531.546	-1.2619929310705				
532.131	0				
532.715	3.79355007301211				
533.3	-0.738906279051632				
533.884	1.47973916649393				
534.469	-7.72494268277134				
535.054	-3.3899567418419				
535.639	2.96739452112665				
536.223	4.45560353497026				
536.808	6.27165533437449				
537.393	1.17308011841776				
537.978	2.99745688476791				
538.563	0.858555004735762				
539.148	0.537688866841706				
539.733	5.38139604492964				
540.318	1.39955606683213				
540.903	-5.05899050033649				
541.488	10.2124072998087				
542.073	0.96656151315149				
542.658	-1.18480143898461				
543.244	-4.64489933389405				
543.829	-2.27490480695061				
544.414	7.04374321158606				
545	4.87302877730463				
545.585	1.08464690591184				
546.17	7.27887358356101				
546.756	2.28512640633863				
547.341	1.08958889235535				
547.927	-2.39975007303583				
548.512	-0.764902424817435				
549.098	2.73664600679152				
549.684	2.41156042645995				
550.269	-0.548487001475677				
550.855	2.74242614250257				
551.441	-7.79516728596179				
552.027	-1.09911890625929				
552.612	1.64916087049043				
553.198	-0.769393072314811				
553.784	0.987831991059557				
554.37	-0.548494882460568				
554.956	1.75509998520027				
555.542	6.37749416513514				
556.128	-3.74549007143161				
556.714	-6.49468264009366				
557.3	-11.7830894658414				
557.887	1.87484171691011				
558.473	5.74311657802768				
559.059	3.09587101109636				
559.645	4.19366636172578				
560.232	-2.42510469511494				
560.818	-1.87385440708392				
561.404	1.43486063835594				
561.991	6.6354068851272				
562.577	5.41936586953566				
563.164	0.442425622706934				
563.75	6.96883302672944				
564.337	1.21759741751563				
564.923	-1.44056146676807				
565.51	0.665428937454546				
566.097	4.88323155669695				
566.683	4.77336701370168				
567.27	-2.1113642289643				
567.857	0.334037477746733				
568.444	1.7834023314069				
569.03	0				
569.617	4.35044694587253				
570.204	-2.00967446104223				
570.791	6.49119983395507				
571.378	-3.13824569119976				
571.965	2.5802487783388				
572.552	-0.561506564094155				
573.139	-5.84632962761248				
573.726	3.49035768902674				
574.313	3.49441652264509				
574.901	9.25176060215271				
575.488	1.12960409533422				
576.075	-7.69050167089154				
576.662	1.13195681854185				
577.25	3.28597697938553				
577.837	-0.90753297957918				
578.424	5.1081780739302				
579.012	-5.90564206715319				
579.599	-0.34144639759557				
580.187	-1.48218173933177				
580.774	5.02087674031488				
581.362	-2.96934342055647				
581.95	8.68670402355152				
582.537	-3.77353831437121				
583.125	-0.228736653732747				
583.713	-2.74276506400938				
584.3	-5.94334259370659				
584.888	5.94898566504694				
585.476	0.686876647019514				
586.064	-6.87266899563517				
586.652	2.86459413271174				
587.239	-3.09500481831193				
587.827	-1.83497420135698				
588.415	0.45938534493998				
589.003	2.76119094179822				
589.591	-2.5326879193643				
590.179	3.91599191700805				
590.768	5.06827352394559				
591.356	-3.68480741355743				
591.944	-7.01988702008166				
592.532	5.52894195385392				
593.12	3.80478889172004				
593.709	3.80658119896953				
594.297	2.65370224757584				
594.885	3.46138519047421				
595.474	3.34989126610638				
596.062	-0.809696133710362				
596.65	-1.15755747275184				
597.239	-0.231626345179964				
597.827	-1.27413181676323				
598.416	3.9437196560963				
599.004	-0.69727019635327				
599.593	-0.581144380362091				
600.182	0.930206459562288				
600.77	-1.16389085508569				
601.359	0.466198896849595				
601.948	2.21807105730168				
602.536	2.10034656465484				
603.125	1.86615081596175				
603.714	0.583417420799428				
604.303	-3.27305481238491				
604.892	-2.57970489281211				
605.481	1.05739073514697				
606.07	3.2944902340979				
606.659	-0.823505903112349				
607.248	11.1775159903416				
607.837	-5.53260916959295				
608.426	1.17819765750112				
609.015	2.83059322465327				
609.604	-2.95033979877347				
610.193	2.47989522327004				
610.782	2.95440086006885				
611.372	-1.53802649994226				
611.961	10.3069895645908				
612.55	2.61118768025904				
613.14	3.68584224971722				
613.729	0.595272862477179				
614.318	-1.54985341209164				
614.908	7.76047593563979				
615.497	-0.358778721373246				
616.087	-5.15009469433455				
616.676	6.46776379487493				
617.266	2.75531896870643				
617.855	0.599214942265036				
618.445	3.2391338520475				
619.035	6.12604583544801				
619.624	5.17167662050084				
620.214	-3.13105202426794				
620.804	4.22026753580308				
621.393	-1.68948704326042				
621.983	3.50171607657071				
622.573	2.656265572066				
623.163	7.73031349050777				
623.753	-1.33085349737036				
624.343	2.05926965027337				
624.933	3.75849150636966				
625.523	-2.91629428333916				
626.113	-3.40957390110456				
626.703	1.70644160212053				
627.293	1.22008734027769				
627.883	-8.1827546440894				
628.473	1.10003025054121				
629.063	0.366967319279541				
629.653	6.36955370939147				
630.243	0.490627341512589				
630.834	-5.64960231500122				
631.424	1.72146610767366				
632.014	2.33887220587232				
632.605	2.83297296606604				
633.195	1.10916314493585				
633.785	-0.493179476622394				
634.376	-8.88035757754938				
634.966	1.85062910734922				
635.557	-0.616551199020069				
636.147	0.246568548983941				
636.738	0				
637.328	8.02737024053332				
637.919	-5.1910350447721				
638.51	-3.09114486451777				
639.1	6.43071515679801				
639.691	9.76364564318134				
640.282	-1.11304477618663				
640.872	7.93125761020063				
641.463	-1.11704308330619				
642.054	-2.11287672989177				
642.645	14.8091270739244				
643.236	1.7443895525991				
643.826	2.99379921198035				
644.417	5.37367863241884				
645.008	2.25416869808649				
645.599	1.75611204137173				
646.19	2.63764115728739				
646.781	2.63935938000935				
647.372	-0.37745087858816				
647.963	-5.54313649268439				
648.555	5.1724461780772				
649.146	3.66522103494333				
649.737	5.45136776773356				
650.328	7.88027214088428				
650.919	-1.6558763121266				
651.51	0.638045219416597				
652.102	-5.75168988612014				
652.693	0.895420768691118				
653.284	-5.12382604939122				
653.876	-6.28950092685921				
654.467	1.79962463381992				
655.059	0.643655883696957				
655.65	-2.45257832296236				
656.241	-1.16382851724574				
656.833	-5.9510346696059				
657.424	5.17861096243853				
658.016	3.75771663019964				
658.608	8.04209210933717				
659.199	1.68862279248206				
659.791	0.390518298994652				
660.382	-0.521757981971498				
660.974	3.92101111407023				
661.566	-2.09668696808284				
662.158	4.3335300042048				
662.749	-7.09572862934976				
663.341	0.394550096430211				
663.933	0				
664.525	4.08069504505723				
665.117	-8.29357343437904				
665.709	-3.29608481756819				
666.301	10.2963490798224				
666.892	-1.05702666588184				
667.484	3.43987399071351				
668.076	4.50411007448783				
668.669	-6.75977028487619				
669.261	11.1416954810931				
669.853	10.2228719259951				
670.445	7.97464588515558				
671.037	10.5114140433437				
671.629	-1.73005775500115				
672.221	-2.66250870383481				
672.813	13.0536677648076				
673.406	4.39899834880597				
673.998	8.40530048680809				
674.59	11.3632015311977				
675.183	0.669445983758213				
675.775	-4.42037411251057				
676.367	-1.74463488945747				
676.96	10.4966161352404				
677.552	11.1704849571352				
678.144	-0.269215354094065				
678.737	15.3611779976607				
679.329	4.58371721888304				
679.922	11.9995433955959				
680.515	11.7393370567183				
681.107	14.5895131533773				
681.7	8.5288097937279				
682.292	10.7174279619187				
682.885	13.3227163738961				
683.478	11.68314292614				
684.07	9.09294607584994				
684.663	12.916574978588				
685.256	7.89994277887915				
685.849	13.6439485687375				
686.441	1.63907678260131				
687.034	11.2108583724027				
687.627	9.03833448700419				
688.22	10.5613687199299				
688.813	22.389515520836				
689.406	29.0059876810132				
689.999	35.7600491864069				
690.592	44.650364081486				
691.184	53.8215269238522				
691.777	56.5913579017898				
692.371	69.4628933258063				
692.964	75.1775333605825				
693.557	93.1097337629649				
694.15	101.489817299342				
694.743	120.640546385767				
695.336	136.579575915592				
695.929	144.85698744468				
696.522	161.494845827309				
697.116	170.737537747248				
697.709	188.737509574798				
698.302	189.821019185988				
698.895	202.415779372214				
699.489	217.158358596485				
700.082	230.143780426289				
700.675	237.867696104237				
701.269	230.686666597953				
701.862	226.910122165181				
702.456	218.704470357375				
703.049	229.795781545054				
703.643	208.298971127934				
704.236	195.535647377611				
704.83	192.52694586954				
705.423	179.164827197803				
706.017	164.212050354131				
706.61	146.192532493371				
707.204	142.420124349896				
707.798	127.075488645004				
708.391	119.089618913636				
708.985	96.7622318098811				
709.579	86.309287646547				
710.172	82.0131979145096				
710.766	53.2321944713764				
711.36	51.7091324922776				
711.954	32.7671101790718				
712.547	30.6471000378134				
713.141	26.3280247601653				
713.735	27.4964080634611				
714.329	13.2403826257099				
714.923	12.0769838337929				
715.517	11.3919655645094				
716.111	9.81861945757763				
716.705	6.00564694661898				
717.299	10.9931608584363				
717.893	-3.81766378901268				
718.487	5.29980991237118				
719.081	-2.21375790309363				
719.675	8.12179915284075				
720.269	-5.1760611573671				
720.863	6.96853686934259				
721.457	2.37605691529379				
722.051	11.1525454809894				
722.646	4.91466907905144				
723.24	2.2367209952319				
723.834	3.88015323684296				
724.428	8.97214366876558				
725.022	-3.4476861330648				
725.617	-4.50470897394256				
726.211	6.46240891073147				
726.805	5.85750161285725				
727.4	4.95927582465849				
727.994	-3.91195406230425				
728.588	2.41063889147478				
729.183	4.52697006673442				
729.777	6.803832551411				
730.372	0.909227617856807				
730.966	-0.455715839461012				
731.561	7.29673499239742				
732.155	4.10640291868612				
732.75	1.67314933015832				
733.344	0.608884296176619				
733.939	-2.13376068750227				
734.533	7.33976107614675				
735.128	3.22167641089795				
735.723	-4.76738011393152				
736.317	12.9451250747185				
736.912	1.85264590107006				
737.507	-3.70632011961502				
738.101	2.62483395435515				
738.696	3.39300575254846				
739.291	2.47093594140258				
739.886	0.620147514598818				
740.48	7.45505064309454				
741.075	2.64490147057619				
741.67	1.09431894834126				
742.265	0.470517740389141				
742.86	9.26578854095048				
743.454	3.30172395920074				
744.049	-4.2498323396525				
744.644	0.945967546349237				
745.239	-2.99836254278294				
745.834	2.20903042313347				
746.429	-5.37342894981934				
747.024	12.9887254981467				
747.619	0.476024857669123				
748.214	-0.953666572767948				
748.809	7.6417218030968				
749.404	-5.26425850062004				
749.999	-1.4388561369017				
750.594	-2.40166671191083				
751.19	13.6245204052699				
751.785	-6.89441706967962				
752.38	-8.19590444742752				
752.975	-4.8376463207562				
753.57	-6.98130725718632				
754.165	-0.816085549798951				
754.761	-10.1301947286483				
755.356	11.6182784383555				
755.951	-6.55741309728237				
756.546	14.9703421278267				
757.142	3.63298357094584				
757.737	4.14614828399002				
758.332	8.98983648443133				
758.928	-12.5287732669725				
759.523	-90.9263027644364				
760.118	1.16748067830188				
760.714	3.52397662325968				
761.309	-2.5284689607423				
761.905	-5.24129413151217				
762.5	3.04862269378634				
763.096	-4.91910100220715				
763.691	9.00437676856606				
764.287	8.3432301663831				
764.882	-3.07366780294733				
765.478	8.21557627335283				
766.073	4.45819195561839				
766.669	-5.31094445513472				
767.264	8.3920760481353				
767.86	-2.05596998516884				
768.456	6.85960791801171				
769.051	-5.49194877423712				
769.647	-0.34233545722129				
770.243	7.35280111187533				
770.838	8.90417769419167				
771.434	8.09135684744399				
772.03	11.6108778701215				
772.625	12.6826299699259				
773.221	-8.17664463030389				
773.817	11.1273319889533				
774.413	3.13915471436381				
775.009	5.95736302700058				
775.604	0.528646219059357				
776.2	16.8281761426297				
776.796	4.80354461098826				
777.392	-6.94242418342854				
777.988	17.7764776223976				
778.584	12.4589840119777				
779.18	3.20873600708221				
779.775	10.3616686080754				
780.371	10.3762112173979				
780.967	4.29763894577014				
781.563	4.49357404585996				
782.159	1.26214286868925				
782.755	11.550796822404				
783.351	20.4729063271859				
783.947	14.7609545772162				
784.543	1.8072184236708				
785.139	15.4502686885314				
785.735	13.927239182518				
786.332	18.7572042610671				
786.928	5.31726153560315				
787.524	7.33438144826392				
788.12	16.8628623015875				
788.716	27.7250188985959				
789.312	11.4566367165453				
789.908	16.0596582578007				
790.505	15.6120082110715				
791.101	17.16685275998				
791.697	18.2124533252283				
792.293	24.5186124481451				
792.889	27.681702048247				
793.486	32.2900015351612				
794.082	7.67939523172655				
794.678	18.1846599569942				
795.275	14.1096351041073				
795.871	28.2141640267813				
796.467	19.2829441790271				
797.064	32.7744113097702				
797.66	22.0004434491212				
798.256	17.5188049959968				
798.853	23.698136443885				
799.449	21.554543802544				
800.045	11.6257662528956				
800.642	25.8714234923593				
801.238	21.9415870125073				
801.835	13.4269413061612				
802.431	15.3918595460872				
803.028	19.9766687725813				
803.624	17.8480073459947				
804.221	7.20470021306209				
804.817	9.16961845298811				
805.414	3.43860691987054				
806.01	13.5906844928217				
806.607	8.35090251968561				
807.203	7.8596729597041				
807.8	15.0643731727662				
808.397	-5.56726834645707				
808.993	4.74855241315456				
809.59	16.8655482260317				
810.186	0.163743186660502				
810.783	22.9240461324703				
811.38	2.45614779990753				
811.976	4.74855241315456				
812.573	3.43860691987054				
813.17	9.49710482630912				
813.766	-1.96491823992603				
814.363	1.63743186660502				
814.96	-1.14620230662351				
815.557	10.8070503195931				
816.153	5.23978197313607				
816.75	6.38598427975958				
817.347	-3.92983647985205				
817.944	3.60235010653105				
818.54	0.654972746642008				
819.137	8.51464570634611				
819.734	-7.5321865863831				
820.331	-6.71347065308058				
820.928	4.09357966651255				
821.525	7.36844339972259				
822.121	1.14620230662351				
822.718	-6.71347065308058				
823.315	9.00587526632761				
823.912	8.1871593330251				
824.509	-7.5321865863831				
825.106	5.56726834645707				
825.703	3.60235010653105				
826.3	3.76609329319155				
826.897	12.2807389995377				
827.494	-5.40352515979657				
828.091	-9.66084801296962				
828.688	-4.09357966651255				
