Wavelength, nm	Sc/Rc	Wavelength	Signal	Baseline_Result	Baseline_Y
Raw CCD	counts/uA	nm	Sc/Rc		
	Fully Corrected Emission Spectrum		Water Raman		Baseline of "Signal"
247.749	12.0077098584418	365	139.28485657311	365	139.28485657311
248.309	-2.68407632129875	365.5	143.239012646536	365.5	138.47589823757
248.868	-4.52054959376631	366	130.39788950297	366	137.666939902031
249.428	8.75856483792223	366.5	126.075511509058	366.5	136.857981566491
249.988	4.09674806935072	367	124.276044377548	367	136.049023230952
250.549	14.9629761484984	367.5	132.388694634841	367.5	135.240064895412
251.109	4.05251823370502	368	143.268957477792	368	134.431106559872
251.669	0.649656835214563	368.5	133.633875003547	368.5	133.622148224333
252.229	11.6007687923049	369	127.693647900103	369	132.813189888793
252.79	8.56695198347752	369.5	144.162743356518	369.5	132.004231553253
253.35	4.19143322076549	370	134.978505784322	370	131.195273217714
253.911	0.861187880750308	370.5	142.046989730921	370.5	130.386314882174
254.471	12.6678234873691	371	131.239985552491	371	129.577356546634
255.032	4.79800157385852	371.5	130.694792682455	371.5	128.768398211095
255.592	12.2409155277119	372	139.971461103931	372	127.959439875555
256.153	5.95970690493439	372.5	137.993660515757	372.5	127.150481540015
256.714	-8.20991216645316	373	135.849325493738	373	126.341523204476
257.275	2.37455472715476	373.5	137.497084017747	373.5	125.532564868936
257.835	4.15551878122832	374	124.455908547197	374	124.723606533397
258.396	1.77635533994339	374.5	132.560656314751	374.5	123.914648197857
258.957	15.7247474912245	375	129.999119642402	375	123.105689862317
259.518	3.71419009189927	375.5	126.361151546557	375.5	122.296731526778
260.08	-0.770768337180421	376	127.064513236346	376	121.487773191238
260.641	12.2325758001636	376.5	121.252136984743	376.5	120.678814855698
261.202	3.55172352079523	377	114.272344155108	377	119.869856520159
261.763	6.4921682392376	377.5	110.173926998068	377.5	119.060898184619
262.325	7.62358843394732	378	98.0782043337421	378	118.251939849079
262.886	14.1981424505591	378.5	106.514654940534	378.5	117.44298151354
263.447	3.3794302785824	379	105.529156504919	379	116.634023178
264.009	6.73862125143718	379.5	101.921551667383	379.5	115.825064842461
264.571	0.271919873784445	380	101.852324424598	380	115.016106506921
265.132	-1.78151160647489	380.5	97.9553039081809	380.5	114.207148171381
265.694	3.44439105909633	381	93.4887220727706	381	113.398189835842
266.256	9.71116279637778	381.5	93.2597437513311	381.5	112.589231500302
266.817	6.15761168005927	382	89.836487647896	382	111.780273164762
267.379	-5.21554161866571	382.5	93.6159055285269	382.5	110.971314829223
267.941	12.3433732146254	383	101.431142668872	383	110.162356493683
268.503	9.24004908316798	383.5	92.8523375852387	383.5	109.353398158143
269.065	10.8335318784201	384	87.9888653941045	384	108.544439822604
269.627	5.77572192632319	384.5	97.4962907455746	384.5	107.735481487064
270.19	-1.31113504920316	385	108.36538460335	385	106.926523151524
270.752	2.62562698461178	385.5	118.643457750456	385.5	106.117564815985
271.314	2.78417985597223	386	124.900268105291	386	105.308606480445
271.876	-3.54200142574264	386.5	155.574290472183	386.5	104.499648144906
272.439	-4.15478615159156	387	178.61384878107	387	103.690689809366
273.001	-7.45578569052341	387.5	206.557465035635	387.5	102.881731473826
273.564	8.83827689199033	388	251.123464331375	388	102.072773138287
274.126	14.1304510159839	388.5	301.473925391786	388.5	101.263814802747
274.689	11.421804001161	389	352.847230218855	389	100.454856467207
275.252	9.02294482053771	389.5	420.503412125796	389.5	99.6458981316677
275.814	9.79167032796766	390	518.864446733058	390	98.836939796128
276.377	9.19391299217835	390.5	601.733515361696	390.5	98.0279814605884
276.94	24.8671040234825	391	718.647787662599	391	97.2190231250488
277.503	22.4369205829525	391.5	814.583010406625	391.5	96.4100647895091
278.066	8.07931805926118	392	922.88148515081	392	95.6011064539695
278.629	11.1017232568411	392.5	1067.95220380522	392.5	94.7921481184298
279.192	21.0622240350283	393	1194.81374096362	393	93.9831897828902
279.755	25.6033527040335	393.5	1329.65137074172	393.5	93.1742314473505
280.319	14.5747284058573	394	1452.98958334445	394	92.3652731118109
280.882	22.4002978528471	394.5	1551.97468699138	394.5	91.5563147762713
281.445	23.2065955550741	395	1665.45258272022	395	90.7473564407316
282.008	25.9145011172253	395.5	1767.38880881741	395.5	89.938398105192
282.572	13.1422141970702	396	1835.01163955689	396	89.1294397696523
283.135	18.3899501853436	396.5	1900.31238498439	396.5	88.3204814341127
283.699	21.1462826708378	397	1961.86977475844	397	87.511523098573
284.263	19.9983131001449	397.5	1972.73158952188	397.5	86.7025647630334
284.826	21.6297224544534	398	1970.22555945608	398	85.8936064274938
285.39	18.3416875767567	398.5	1925.16505684803	398.5	85.0846480919541
285.954	30.0507057730467	399	1865.48015993964	399	84.2756897564145
286.518	12.6622303009678	399.5	1815.27147195482	399.5	83.4667314208748
287.081	25.0086159421126	400	1742.53642168758	400	82.6577730853352
287.645	12.4187692172609	400.5	1638.59309950173	400.5	81.8488147497956
288.209	19.4926348887225	401	1531.65204987958	401	81.0398564142559
288.773	18.6550641297693	401.5	1407.36524393285	401.5	80.2308980787163
289.338	19.8464246994598	402	1295.21500828989	402	79.4219397431766
289.902	24.7659319169022	402.5	1158.45022966173	402.5	78.612981407637
290.466	15.8943748256158	403	1029.74101442429	403	77.8040230720973
291.03	17.9948187138381	403.5	912.181370318511	403.5	76.9950647365577
291.595	16.6360287368858	404	798.670726856286	404	76.1861064010181
292.159	22.0265916939519	404.5	697.352534043674	404.5	75.3771480654784
292.724	6.70373199078085	405	589.107387336338	405	74.5681897299388
293.288	26.9061372054204	405.5	483.802473153993	405.5	73.7592313943991
293.853	24.138123750159	406	402.044236365788	406	72.9502730588595
294.417	15.9862550887698	406.5	330.020676584424	406.5	72.1413147233199
294.982	24.0591357723744	407	273.709095036176	407	71.3323563877802
295.547	17.0103456139544	407.5	224.030223536339	407.5	70.5233980522406
296.111	22.4661515450435	408	180.578160004976	408	69.7144397167009
296.676	16.5256525610477	408.5	153.803194999507	408.5	68.9054813811613
297.241	26.663052495085	409	122.671551881134	409	68.0965230456216
297.806	19.9964199262407	409.5	100.998986421827	409.5	67.287564710082
298.371	24.3359280735917	410	88.5471202337389	410	66.4786063745424
298.936	21.4062260147906	410.5	69.6177584556556	410.5	65.6696480390027
299.501	15.6998347970353	411	58.763628490473	411	64.8606897034631
300.067	21.374088794627	411.5	59.1781387599241	411.5	64.0517313679234
300.632	19.6409191618003	412	51.4598610068393	412	63.2427730323838
301.197	10.7009665088546	412.5	40.3575969639025	412.5	62.4338146968442
301.763	29.7282938796096	413	44.9056072630776	413	61.6248563613045
302.328	17.784003376207	413.5	41.8974601605935	413.5	60.8158980257649
302.893	13.9642499757356	414	31.7230899595289	414	60.0069396902252
303.459	14.8148451077466	414.5	27.1994260998522	414.5	59.1979813546856
304.025	30.5699966030741	415	24.7093035613155	415	58.3890230191459
304.59	21.6480739813723	415.5	25.3856107620541	415.5	57.5800646836063
305.156	36.3525942628378	416	28.5645689843418	416	56.7711063480667
305.722	41.9529405551848	416.5	21.5081977286747	416.5	55.962148012527
306.287	31.517209533609	417	22.8862311114614	417	55.1531896769874
306.853	47.5991101203468	417.5	23.1731668160267	417.5	54.3442313414477
307.419	36.8273535182166	418	9.44927784318005	418	53.5352730059081
307.985	46.2627917875223	418.5	13.5610927914486	418.5	52.7263146703685
308.551	60.3748414418711	419	19.0621414776785	419	51.9173563348288
309.117	64.3859676262882	419.5	9.96184060697392	419.5	51.1083979992892
309.683	77.576634053375	420	14.4187413949063	420	50.2994396637495
310.25	73.0979984739461	420.5	14.9991749849059	420.5	49.4904813282099
310.816	82.2749936840701	421	10.4232912741712	421	48.6815229926702
311.382	90.6222642742593	421.5	15.9335930828619	421.5	47.8725646571306
311.949	111.075168478119	422	16.437486796286	422	47.063606321591
312.515	107.426225730308	422.5	10.183066360607	422.5	46.2546479860513
313.081	117.98954180206	423	12.6855445773799	423	45.4456896505117
313.648	134.715224885004	423.5	14.1825953310859	423.5	44.636731314972
314.215	132.670482640332	424	2.16604906156119	424	43.8277729794324
314.781	153.025866969184	424.5	10.3922534968866	424.5	43.0188146438928
315.348	173.605344830211	425	13.8381324564639	425	42.2098563083531
315.915	175.845245079621	425.5	16.1719812649245	425.5	41.4008979728135
316.481	189.2517339576	426	14.7226155301885	426	40.5919396372738
317.048	211.93359779021	426.5	12.0242276873467	426.5	39.7829813017342
317.615	227.393386086634	427	8.95782247504659	427	38.9740229661946
318.182	239.625147152392	427.5	4.23289271626934	427.5	38.1650646306549
318.749	255.73295465892	428	8.79579645855261	428	37.3561062951153
319.316	269.271522968467	428.5	6.31973410372739	428.5	36.5471479595756
319.883	285.925589245469	429	8.57263013796256	429	35.738189624036
320.451	294.927564522243	429.5	5.03058389207882	429.5	34.9292312884963
321.018	297.335384271185	430	4.29609664144492	430	34.1202729529567
321.585	315.905071037148	430.5	7.62409382553062	430.5	33.3113146174171
322.153	319.147205143824	431	5.89682873921289	431	32.5023562818774
322.72	326.458470280232	431.5	6.81994429673524	431.5	31.6933979463378
323.287	330.066221808168	432	7.59412632534228	432	30.8844396107981
323.855	317.474543063191	432.5	12.678654170099	432.5	30.0754812752585
324.423	340.792320343474	433	4.701872795595	433	29.2665229397188
324.99	324.935115225788	433.5	13.1602762868723	433.5	28.4575646041792
325.558	329.010160634884	434	16.0204266898707	434	27.6486062686396
326.126	332.538826865945	434.5	0.872301514542421	434.5	26.8396479330999
326.693	326.310057119227	435	5.85225782276636	435	26.0306895975603
327.261	342.863054697943	435.5	11.3474341222658	435.5	25.2217312620206
327.829	327.550157749299	436	9.00629250375141	436	24.412772926481
328.397	328.005237326807	436.5	9.38028100598927	436.5	23.6038145909413
328.965	331.843969406751	437	3.89177840028165	437	22.7948562554017
329.533	325.459325248346	437.5	3.85290357917038	437.5	21.9858979198621
330.101	316.59644526097	438	11.5952564900442	438	21.1769395843224
330.669	320.223312637823	438.5	9.36552392407995	438.5	20.3679812487828
331.238	317.190810746077	439	1.05323495970298	439	19.5590229132431
331.806	310.500415994229	439.5	3.94323139184088	439.5	18.7500645777035
332.374	300.245366963985	440	8.07931075090048	440	17.9411062421639
332.943	301.026832124834	440.5	10.4593424634188	440.5	17.1321479066242
333.511	298.887611181131	441	9.42558837727326	441	16.3231895710846
334.08	288.286086342078	441.5	7.90123572317925	441.5	15.5142312355449
334.648	280.430104941586	442	9.30451655018891	442	14.7052729000053
335.217	288.06684321039	442.5	7.54727420902053	442.5	13.8963145644656
335.785	270.552454676328	443	-0.35733191130872	443	13.087356228926
336.354	261.271600348718	443.5	2.41902330076917	443.5	12.2783978933864
336.923	249.323155618102	444	4.70016352470778	444	11.4694395578467
337.492	240.687468432577	444.5	2.9821976978787	444.5	10.6604812223071
338.061	228.389994024368	445	4.2054256211201	445	9.85152288676744
338.629	234.493704041495	445.5	9.35640575310191	445.5	9.0425645512278
339.198	226.681290784248	446	9.77584058583976	446	8.23360621568816
339.767	244.458380179283	446.5	4.43079888693154	446.5	7.42464788014851
340.337	264.523850200023	447	7.37867460462251	447	6.61568954460887
340.906	284.893442547552	447.5	5.80673120906923	447.5	5.80673120906923
341.475	324.495835801096	448	9.7364323084749	448	4.99777287352958
342.044	435.270015624692	448.5	12.9423982312354	448.5	4.18881453798994
342.613	623.964857507612	449	14.7346006989165	449	3.3798562024503
343.183	922.517193431216	449.5	14.7328927818394	449.5	2.57089786691066
343.752	1391.58688915657	450	4.20521709008496	450	1.76193953137102
344.322	2042.45310586533				
344.891	2921.04208308208				
345.461	4000.422620905				
346.03	5285.7541944802				
346.6	6742.81906997919				
347.17	8389.99716121803				
347.739	8514.64111136689				
348.309	8563.44584027151				
348.879	8548.67934800578				
349.449	8500.49690696842				
350.019	8639.81843865455				
350.589	8536.17448171369				
351.159	8606.32427991225				
351.729	8587.40676901589				
352.299	8629.21115575518				
352.87	8721.76195366953				
353.44	8652.85636101312				
354.01	8679.11861556062				
354.581	7157.99198984724				
355.151	5581.9844321322				
355.722	4203.84963807993				
356.292	3055.9562030172				
356.863	2076.29866817947				
357.434	1363.33313337209				
358.004	850.718434703783				
358.575	543.375596141783				
359.146	356.78398248887				
359.717	274.611278714461				
360.288	223.554278265851				
360.859	197.817259233075				
361.43	187.692003960114				
362.001	166.055741350738				
362.572	161.389959240181				
363.143	156.905175658879				
363.714	144.169350589725				
364.286	138.324917100892				
364.857	137.171471389677				
365.428	144.008003449845				
366	130.39788950297				
366.571	125.811591771151				
367.143	125.160816529457				
367.714	137.982021826448				
368.286	141.365580700173				
368.858	124.574849314629				
369.43	143.78962244541				
370.001	134.974124389442				
370.573	142.137606415911				
371.145	128.08629908312				
371.717	135.512936950673				
372.289	140.466714843717				
372.861	134.737415911729				
373.433	138.662872803259				
374.005	124.425198646396				
374.578	133.584600210523				
375.15	127.814076325803				
375.722	126.866499702115				
376.295	124.877295350666				
376.867	115.018851985661				
377.439	111.521141404599				
378.012	98.0342132855182				
378.584	107.755780717108				
379.157	103.573450311137				
379.73	101.972995280919				
380.302	100.248278617409				
380.875	93.8879580056015				
381.448	93.4950779087629				
382.021	89.7982521760856				
382.594	95.2019910062688				
383.167	101.022217480308				
383.74	87.4521858345257				
384.313	93.8427753363923				
384.886	105.480887565507				
385.459	118.256382041099				
386.032	126.109741217763				
386.606	162.111472884349				
387.179	186.201711646902				
387.752	227.623878565498				
388.326	283.917586209118				
388.899	342.174610572679				
389.473	415.793446607792				
390.046	527.238425706128				
390.62	625.285077773383				
391.194	763.154573733285				
391.767	862.500012422986				
392.341	1024.50437978967				
392.915	1172.72517438356				
393.489	1326.71530775281				
394.063	1466.52905348251				
394.637	1580.32599392011				
395.211	1713.43041473128				
395.785	1808.81718657046				
396.359	1879.64039400427				
396.933	1956.8463955352				
397.507	1972.7693709985				
398.082	1966.31442322758				
398.656	1905.70773992508				
399.23	1841.5885381519				
399.805	1777.02314826914				
400.379	1663.52505443927				
400.954	1542.48602538658				
401.528	1400.76347767447				
402.103	1269.91916488182				
402.677	1109.04197073173				
403.252	971.590384731925				
403.827	835.587536223112				
404.402	717.60355181236				
404.977	594.186522320785				
405.551	474.286721159075				
406.126	383.585257750318				
406.701	304.639924469628				
407.276	247.287539111237				
407.852	190.720431364489				
408.427	157.996915878166				
409.002	122.558329894078				
409.577	98.7493519243812				
410.152	83.90928724203				
410.728	61.9482419814059				
411.303	59.2473889699195				
411.879	54.6087482000395				
412.454	40.6179287628196				
413.03	45.1183467429031				
413.605	39.9622098021774				
414.181	28.9506405200989				
414.756	26.471309096556				
415.332	23.794881689331				
415.908	29.0887755873512				
416.484	21.6404457327775				
417.06	23.3273012074483				
417.635	20.7074408309489				
418.211	6.76393750125803				
418.787	20.7884149155051				
419.363	10.8952132145029				
419.94	13.8314411743018				
420.516	14.8750327145135				
421.092	10.5045166508753				
421.668	17.7747957107746				
422.244	13.1871089123905				
422.821	10.098111489202				
423.397	15.9620623567473				
423.974	2.30775718312477				
424.55	11.2962799524771				
425.127	14.07421553371				
425.703	16.6092959736772				
426.28	12.5199922095136				
426.856	10.7379953847568				
427.433	4.11828228370773				
428.01	8.82695294205567				
428.587	6.13447274009462				
429.164	8.76473915245272				
429.741	2.8496044276504				
430.317	7.42560755041731				
430.894	6.00298922297079				
431.472	6.80330524156185				
432.049	8.00312271298679				
432.626	12.1516742397945				
433.203	3.94874477587003				
433.78	20.1559339639346				
434.357	3.04316325517442				
434.935	4.77818896894214				
435.512	11.3676482952077				
436.09	8.71218273603897				
436.667	8.7070041986035				
437.244	1.61788072314032				
437.822	9.48457724290304				
438.4	10.893046251313				
438.977	1.21083788151589				
439.555	4.53487474036134				
440.133	8.85722270980866				
440.711	10.5588564301345				
441.288	8.12644076462408				
441.866	8.79530248374464				
442.444	8.28214932347376				
443.022	-0.498448786107618				
443.6	3.38680301325191				
444.178	4.27988216602773				
444.756	2.78455449816316				
445.334	7.64759950106278				
445.913	10.5106761416456				
446.491	4.45112907833967				
447.069	7.59619022494175				
447.647	5.80308373863859				
448.226	12.3500619344923				
448.804	13.1765708866437				
449.383	16.1630017543223				
449.961	4.86105523244046				
450.54	3.00963251464175				
451.118	10.0831795841494				
451.697	6.77862405175315				
452.276	11.6956682786548				
452.854	8.09849977612873				
453.433	4.04523005203894				
454.012	9.62695169603631				
454.591	8.84753394416842				
455.17	15.6626050769847				
455.749	6.62827112312208				
456.328	16.5124302708391				
456.907	15.7306908382956				
457.486	6.90020656923751				
458.065	11.3001313930578				
458.644	5.26741099716285				
459.224	9.94527104539774				
459.803	10.1912258248413				
460.382	4.85023911776115				
460.961	6.56080924587026				
461.541	9.68129169584524				
462.12	5.6858393431663				
462.7	10.5146026624433				
463.279	7.2840917020303				
463.859	8.49366982642238				
464.439	6.12548992757231				
465.018	14.3081796561969				
465.598	5.83275121393844				
466.178	7.80034540851112				
466.758	4.03306328956517				
467.337	8.4188803997623				
467.917	0.839244642250708				
468.497	9.96398716938466				
469.077	4.65096608959313				
469.657	2.78718616300811				
470.237	4.82766180045295				
470.817	6.49883361669054				
471.398	0.927467066329492				
471.978	14.4471085030248				
472.558	6.2990296904958				
473.138	3.05745309184661				
473.719	11.8564492338249				
474.299	1.20289485939552				
474.879	8.49714389505723				
475.46	6.74103546702561				
476.04	11.3592415142987				
476.621	7.37332334178576				
477.201	6.07361219235829				
477.782	6.98914982927036				
478.363	4.59447747883089				
478.943	4.68231617153042				
479.524	10.2825862056772				
480.105	3.67288107972143				
480.686	3.30705227290361				
481.267	3.95233470711319				
481.848	9.01410587787618				
482.429	7.08392658143797				
483.01	14.7205519658004				
483.591	5.89899817561593				
484.172	1.38444606061455				
484.753	7.01607042676751				
485.334	8.3045646573715				
485.915	1.93581719113124				
486.497	4.79086050844513				
487.078	11.9723320713158				
487.659	1.84187786892809				
488.241	4.7882936315283				
488.822	-1.0126230573526				
489.404	7.00107078103186				
489.985	9.12987521887139				
490.567	4.80199430980479				
491.148	5.17560123633406				
491.73	8.58857103038792				
492.312	1.10752519077126				
492.893	4.61250787501381				
493.475	2.9476696179695				
494.057	6.62317605592227				
494.639	6.44973947569205				
495.221	1.10673911411075				
495.803	3.22759493201862				
496.385	-2.94889608788291				
496.967	5.79990752052563				
497.549	-4.51244855175725				
498.131	4.78944069436379				
498.713	8.28380908920317				
499.295	5.6073862479974				
499.877	4.58761312472442				
500.46	8.5426698295584				
501.042	1.74839347386489				
501.624	-4.41618744879625				
502.207	2.66653941312583				
502.789	6.33610247971527				
503.372	4.13332779402788				
503.954	10.5752570148471				
504.537	9.19288679007727				
505.119	7.99475173893435				
505.702	-5.23735263176479				
506.284	6.52202963486462				
506.867	7.25390069973753				
507.45	4.86365144752022				
508.033	-0.275134432200833				
508.616	4.67773223502541				
509.198	5.04241678947852				
509.781	6.13356364153427				
510.364	8.22896446364197				
510.947	6.48466159876914				
511.53	4.93184565006982				
512.113	2.10017333185627				
512.697	0.0911870463410795				
513.28	7.65221056058351				
513.863	4.18814668154136				
514.446	6.27847255100412				
515.029	4.45612926340048				
515.613	4.45771906380162				
516.196	1.18254002859092				
516.78	1.45396834326015				
517.363	3.45175059840107				
517.946	4.54153828202142				
518.53	7.17754480009391				
519.114	3.81650410860287				
519.697	-0.454147994112182				
520.281	1.45222688006289				
520.864	2.62946179018428				
521.448	4.89856152501652				
522.032	-0.998674491341249				
522.616	1.63246773493495				
523.2	2.44658451256049				
523.783	10.6872080573754				
524.367	3.16671130982372				
524.951	-1.89750505252507				
525.535	4.42035432440862				
526.119	7.12115133920712				
526.703	4.33809311449194				
527.287	1.99214521101235				
527.872	3.1732603048738				
528.456	4.89568317184081				
529.04	-1.35935708784827				
529.624	0.362313535885697				
530.209	2.08384181683426				
530.793	4.1744546957701				
531.377	-1.08902924220878				
531.962	-1.17879822235469				
532.546	8.72210527628339				
533.131	5.18895995292239				
533.715	-0.273459331446364				
534.3	-0.821386900784667				
534.884	5.93909191523752				
535.469	7.313663554409				
536.054	-1.55500463564141				
536.638	2.01640323368982				
537.223	2.75708847164879				
537.808	5.35080607302619				
538.393	5.55135998530689				
538.978	5.10117074065147				
539.563	-3.43478040154446				
540.148	4.36562419368173				
540.733	0.74294649490246				
541.318	6.95880727224607				
541.903	3.98367938337927				
542.488	3.24961167227146				
543.073	3.44528865762775				
543.658	8.59110110125069				
544.243	5.33005409519725				
544.829	0.934443671536545				
545.414	-0.18706448385284				
545.999	-0.0936833607031392				
546.585	5.72392832065333				
547.17	-0.563834409823239				
547.755	4.89196871013839				
548.341	2.2613198139433				
548.926	8.77885850079399				
549.512	4.06487172028351				
550.097	-0.378560032748292				
550.683	-1.89279404530203				
551.269	1.04157980239606				
551.854	3.98146561277216				
552.44	-0.948445593953662				
553.026	-0.664056563863472				
553.612	5.21027108953688				
554.198	3.88034668019971				
554.783	2.6498667935647				
555.369	1.42186745614706				
555.955	-2.85110679298899				
556.541	6.55433532071402				
557.127	8.54686891174373				
557.713	-1.99720803998774				
558.3	-2.38109935819407				
558.886	-2.19376953086641				
559.472	8.09744222222924				
560.058	3.89920341553047				
560.644	1.71176306945607				
561.231	-2.09370871841685				
561.817	2.95599882196878				
562.403	5.91582267718414				
562.99	7.44288869786098				
563.576	3.43548758830291				
564.162	4.10501584590721				
564.749	-0.573424193303182				
565.336	8.03536575535104				
565.922	0.382939425976819				
566.509	9.95949984091973				
567.095	-1.72465430594888				
567.682	-2.59213855595399				
568.269	-5.09549820846275				
568.855	0.673491567767237				
569.442	6.4478166326108				
570.029	-4.620200303263				
570.616	7.42941841210559				
571.203	1.35336269863255				
571.79	1.3546251985794				
572.377	1.74341206166224				
572.964	4.75091582695493				
573.551	3.980915015036				
574.138	3.01393790750768				
574.725	-3.11400693498774				
575.312	9.25477932503288				
575.899	4.58437128936301				
576.486	1.46448190931089				
577.073	1.85671598677658				
577.661	0.293508092875803				
578.248	7.53987004321232				
578.835	9.20864518885534				
579.423	6.96717584925856				
580.01	5.99866629369958				
580.598	2.55898485483744				
581.185	-5.22076624882203				
581.773	1.08443993541415				
582.36	-0.295924069637457				
582.948	-2.56573096612759				
583.535	-0.788941526308399				
584.123	-0.197156588397648				
584.711	-0.592031513107985				
585.298	-1.48121624287879				
585.886	6.71884730998231				
586.474	-3.16304970084876				
587.062	4.25187101331947				
587.649	2.86894160239013				
588.237	1.28737472186375				
588.825	-1.98409571267907				
589.413	1.6881190639279				
590.001	2.98090885684635				
590.589	6.26054896526473				
591.177	6.16048668954792				
591.765	-0.695115374942068				
592.353	1.78816722476264				
592.942	-0.497252090118296				
593.53	-2.2885735148974				
594.118	3.08576434521825				
594.706	0.597250653256573				
595.294	4.88107856210622				
595.883	5.38689132618267				
596.471	2.89548712125316				
597.06	8.59241081777662				
597.648	4.39676220722787				
598.236	-0.300035492396115				
598.825	3.60731189701299				
599.413	3.81027255079374				
600.002	-2.00570862641473				
600.59	-4.01532641626855				
601.179	2.21102960735751				
601.768	3.52331019879589				
602.356	1.51034829379167				
602.945	5.33297077427788				
603.534	0.704578920089274				
604.123	2.01506573356822				
604.711	5.1544281639843				
605.3	-8.30729950111221				
605.889	5.47988597523112				
606.478	1.82699815366538				
607.067	5.68359409751462				
607.656	5.17863944190746				
608.245	1.93068103551709				
608.834	2.33957909254692				
609.423	8.24543180369135				
610.012	0.407431956521403				
610.601	1.52897999307344				
611.19	7.55000224495633				
611.779	5.92564625657131				
612.369	5.21930221225123				
612.958	-0.307595730878987				
613.547	4.72286537489318				
614.136	-0.102809079725064				
614.726	-1.13253638968821				
615.315	7.21854930878058				
615.905	4.85511979618719				
616.494	4.95992875092394				
617.083	3.82359073052319				
617.673	-2.27437067752662				
618.262	5.89724313866787				
618.852	2.38257488426015				
619.442	-1.55582746881164				
620.031	2.18093118769474				
620.621	-0.103986722792622				
621.211	2.39416267589689				
621.8	-0.312466015654036				
622.39	0.625016291878654				
622.98	3.5414105284451				
623.57	-0.625955570678863				
624.159	2.19402044476335				
624.749	1.0457047124808				
625.339	1.78082855772791				
625.929	-6.61538000750095				
626.519	5.46655107139955				
627.109	5.26142724920192				
627.699	3.7920146542194				
628.289	-6.11463233100365				
628.879	4.32553356205796				
629.469	-2.42954325859828				
630.059	11.0008447236514				
630.649	8.89691707703659				
631.24	10.074414666589				
631.83	4.56512488294872				
632.42	1.06245541075228				
633.01	2.97665654354753				
633.601	5.10510135006953				
634.191	-4.14953814249455				
634.781	0.74501218984476				
635.372	6.27780376428186				
635.962	8.50736601219615				
636.553	2.97996219919				
637.143	-4.36730827266338				
637.734	8.31513707436581				
638.324	4.90646522032519				
638.915	-13.6574156595684				
639.505	0.853175229098456				
640.096	-6.29098408605782				
640.687	1.17531236461772				
641.277	-0.856260368012929				
641.868	5.03750862622164				
642.459	1.18053237338364				
643.05	-7.52202934899806				
643.64	1.07580398573929				
644.231	2.15488147213853				
644.822	2.80724778694418				
645.413	7.13875913917226				
646.004	0.541695709076318				
646.595	4.44479897112539				
647.186	7.37816829982204				
647.777	9.01740712158864				
648.368	-0.761543791106337				
648.959	7.51720789478216				
649.55	8.52290660500522				
650.141	-2.62991988838078				
650.732	-5.38100022072763				
651.323	5.94166394447919				
651.915	4.07841738627531				
652.506	3.19959963509828				
653.097	-1.32529786487006				
653.688	0.33200016672413				
654.28	-3.43648201160143				
654.871	4.77296212971797				
655.462	2.89296964860443				
656.054	1.89633025642975				
656.645	4.68707836807441				
657.237	8.37481975609348				
657.828	4.58213706584452				
658.42	2.68487049109925				
659.011	-3.91957824363894				
659.603	-6.39701874480001				
660.194	6.07302365690433				
660.786	12.3957314073602				
661.377	-3.61472309081992				
661.969	3.85080182833996				
662.561	-0.113342733445043				
663.152	2.15510290653141				
663.744	-1.47608119035029				
664.336	8.06397405131148				
664.928	8.74289457107763				
665.52	7.95838080950554				
666.111	7.40029461420665				
666.703	10.2561951449163				
667.295	8.78502913186632				
667.887	2.17077958288421				
668.479	3.08694810513382				
669.071	6.63508178734997				
669.663	-0.458024383820274				
670.255	11.3478295247073				
670.847	11.5904177625252				
671.439	0.229614106928715				
672.031	8.72717837279231				
672.624	5.97460917944171				
673.216	9.42783569761963				
673.808	2.8768094704738				
674.4	2.18994962382527				
674.992	13.3970168524639				
675.585	2.88867765702719				
676.177	0.578397124886003				
676.769	1.159975116161				
677.362	18.346077091176				
677.954	9.75261907955437				
678.546	7.08896265045053				
679.139	3.83812739764194				
679.731	8.25846912402177				
680.324	14.0818537981087				
680.916	11.6485186940236				
681.509	10.6210559761613				
682.101	9.12314936222263				
682.694	1.75810687327994				
683.286	3.51765746873126				
683.879	2.81026366075255				
684.472	17.2331058020906				
685.064	8.80833926890526				
685.657	13.764586422981				
686.25	6.95061240469585				
686.842	20.1629713618965				
687.435	21.3731363348774				
688.028	17.1503150640516				
688.621	12.0818149038025				
689.214	19.2099895186039				
689.806	27.6431325826805				
690.399	22.2188261043939				
690.992	43.6918808245568				
691.585	51.3212607384213				
692.178	53.0058539673164				
692.771	64.4860013044306				
693.364	77.1523628608801				
693.957	88.8605431554819				
694.55	101.807727426932				
695.143	120.170349141506				
695.736	135.11127150784				
696.329	140.872877146945				
696.923	153.176221283355				
697.516	162.340222253618				
698.109	179.461617407822				
698.702	182.278013870836				
699.295	202.018121179742				
699.889	209.310413236737				
700.482	214.582422756076				
701.075	213.778233558922				
701.669	210.551495020805				
702.262	227.199345384919				
702.855	220.879115758239				
703.449	201.262308644674				
704.042	195.628255799687				
704.636	189.765432849088				
705.229	184.02323445943				
705.823	174.728781908017				
706.416	151.728414562434				
707.01	153.436509696093				
707.603	143.765343967691				
708.197	114.980447033754				
708.79	102.305947346407				
709.384	91.5509918774212				
709.978	78.8047731927972				
710.571	66.9760143740995				
711.165	58.962729879353				
711.759	45.7664763000353				
712.353	34.8149730250511				
712.946	32.7466802203805				
713.54	30.2471724807908				
714.134	17.5734983443455				
714.728	7.40633667722564				
715.322	10.9468880249252				
715.915	8.21370597443137				
716.509	2.27505744603116				
717.103	0.505530392034219				
717.697	-3.67154394310741				
718.291	5.20258311590801				
718.885	2.67219117317733				
719.479	7.13301112391147				
720.073	17.9746652859366				
720.667	-2.68394940360065				
721.261	2.30515447662529				
721.855	14.1054760790931				
722.449	-0.513685645333067				
723.044	2.8294632962005				
723.638	1.15845445244138				
724.232	-0.902336345032034				
724.826	3.48900690082442				
725.42	5.69678018391405				
726.015	6.8733999880727				
726.609	5.83216968999343				
727.203	0.259203612197469				
727.797	9.60194141048994				
728.392	0.519702438474762				
728.986	3.90308522539248				
729.58	-2.73750633661811				
730.175	3.52706823465918				
730.769	9.55928264905186				
731.364	7.99845102897161				
731.958	13.5139557425026				
732.552	9.71039830818252				
733.147	1.83781140494467				
733.741	7.62330164379467				
734.336	1.84476838832051				
734.93	8.06611187549245				
735.525	-2.51882945924096				
736.12	5.31502142948243				
736.714	9.18496445223798				
737.309	6.52835815015129				
737.903	5.06287184148129				
738.498	7.72025034181874				
739.093	10.1127226135623				
739.687	12.1559460318152				
740.282	6.69686524734733				
740.877	10.3264360434935				
741.472	3.23178395921259				
742.066	4.32802795910299				
742.661	8.2612505680686				
743.256	13.5595216081233				
743.851	0.814444691001564				
744.446	1.63134495023957				
745.041	1.76999012684407				
745.635	3.67565272288952				
746.23	-1.77117934417286				
746.825	-4.91600020027358				
747.42	5.06215601070942				
748.015	12.4717899287783				
748.61	4.11825949078629				
749.205	14.7152056408151				
749.8	2.20523478963892				
750.395	3.45162435516779				
750.99	4.0098394067933				
751.585	4.28771780637853				
752.18	14.679454168679				
752.776	-4.86365143960525				
753.371	6.5680479638723				
753.966	16.0416793354333				
754.561	3.10007611927109				
755.156	-1.83416850880883				
755.751	8.05675837340525				
756.347	6.52074516274493				
756.942	5.26405924042987				
757.537	5.71501203475047				
758.132	4.87768864990117				
758.728	-9.35706150938157				
759.323	5.18506635805889				
759.918	5.03134442762776				
760.514	9.82447081544247				
761.109	-3.34142396004672				
761.704	-2.7686429302525				
762.3	10.661389521063				
762.895	16.6741903941649				
763.491	4.83434816302314				
764.086	4.40266458423868				
764.681	3.23790806565936				
765.277	-0.295109387841182				
765.872	5.17574577067334				
766.468	12.2713629711939				
767.063	15.9558665302742				
767.659	7.09414548344071				
768.255	10.0569220267029				
768.85	8.58738700879				
769.446	6.20781739894855				
770.041	5.75070417174055				
770.637	-1.03362231643611				
771.233	0				
771.828	10.7421942107328				
772.424	1.34783579729259				
773.02	11.7095343802546				
773.615	8.5517340686293				
774.211	4.65683040220453				
774.807	-8.90455030690877				
775.402	6.82806837203005				
775.998	14.0390198873998				
776.594	-7.05011313450616				
777.19	16.9013226809259				
777.786	2.14810495749902				
778.381	5.67901335623206				
778.977	3.07371074066475				
779.573	12.9371924696028				
780.169	9.41196579917465				
780.765	13.7451193986955				
781.361	19.048370516026				
781.957	25.6529595772281				
782.553	6.69322830345342				
783.149	12.3238353576321				
783.745	8.31625952328126				
784.341	10.4808627642915				
784.937	13.3222404364804				
785.533	17.7485988023673				
786.129	29.3114967102991				
786.725	23.0417398461525				
787.321	10.2855531585947				
787.917	16.6002131307243				
788.513	15.0397540451124				
789.109	13.0253347801085				
789.705	8.98983913371123				
790.301	18.3264928015729				
790.897	9.89224129181141				
791.494	18.1141894360811				
792.09	20.3039748490216				
792.686	21.7410827175331				
793.282	18.8149057166832				
793.878	38.1005811671604				
794.475	20.0493484170105				
795.071	34.3318127648972				
795.667	36.675504959675				
796.263	17.4747433903124				
796.86	17.7323463452636				
797.456	23.3743500794881				
798.052	33.7293466275004				
798.649	14.688446356861				
799.245	35.6371114439903				
799.841	24.1216582157919				
800.438	26.5582288633771				
801.034	21.47261057039				
801.63	23.1678166680524				
802.227	27.2645647374031				
802.823	18.5059998994808				
803.42	26.1344273389615				
804.016	25.2868242901303				
804.613	19.0710685987016				
805.209	20.766274696364				
805.806	13.9854503057145				
806.402	16.2457251025977				
806.999	18.2234655498705				
807.595	23.0265494932472				
808.192	16.6695266270133				
808.788	14.2679846553249				
809.385	10.029969411169				
809.981	23.4503510176628				
810.578	14.4092518301301				
811.174	3.95548089454552				
811.771	14.5505190049353				
812.368	12.7140457324678				
812.964	6.78082439064947				
813.561	14.5505190049353				
814.158	14.5505190049353				
814.754	16.1044579277925				
815.351	10.029969411169				
815.948	13.7029159561041				
816.544	14.4092518301301				
817.141	8.75856483792223				
817.738	10.736305285195				
818.335	8.89983201272743				
818.931	20.4837403467536				
819.528	10.3125037607794				
820.125	11.8664426836366				
820.722	5.65068699220789				
821.318	12.7140457324678				
821.915	9.74743506155861				
822.512	15.9631907529873				
823.109	21.47261057039				
823.706	6.78082439064947				
824.303	2.26027479688316				
824.899	15.5393892285717				
825.496	14.9743205293509				
826.093	6.78082439064947				
826.69	1.83647327246757				
827.287	2.82534349610395				
827.884	19.2123357735068				
828.481	9.60616788675342				
829.078	21.6138777451952				
829.675	12.148977033247				
