Wavelength, nm	Sc/Rc	Wavelength	Signal	Baseline_Result	Baseline_Y
Raw CCD	counts/uA	nm	Sc/Rc		
	Fully Corrected Emission Spectrum		Water Raman		Baseline of "Signal"
246.74	-0.332167967946711	365	131.115559850213	365	139.287196617872
247.3	-4.81643553522731	365.5	144.033271081313	365.5	138.477194443246
247.86	6.31119139098751	366	144.909195484979	366	137.667192268621
248.42	-12.7884667659484	366.5	134.51485306821	366.5	136.857190093995
248.98	4.4842675672806	367	133.221314034218	367	136.04718791937
249.54	9.13461911853455	367.5	136.45375640184	367.5	135.237185744744
250.1	8.22736642748159	368	134.427183570119	368	134.427183570119
250.66	-3.97636122827164	368.5	132.47490275093	368.5	133.617181395494
251.221	-2.04883868303046	369	133.707052656137	369	132.807179220868
251.781	12.8813448978307	369.5	140.941581362608	369.5	131.997177046243
252.341	22.7600127331299	370	125.87119029094	370	131.187174871617
252.902	1.89170144610865	370.5	136.969243275333	370.5	130.377172696992
253.462	-1.59362641336666	371	147.961264260718	371	129.567170522366
254.023	4.33777983667618	371.5	140.55020053098	371.5	128.757168347741
254.584	-1.44594754911049	372	131.273786700489	372	127.947166173116
255.144	10.2796442716702	372.5	123.526138117506	372.5	127.13716399849
255.705	12.6597056910118	373	132.940352958345	373	126.327161823865
256.266	2.0443801465472	373.5	141.791601124142	373.5	125.517159649239
256.827	3.51119918245838	374	127.535553935349	374	124.707157474614
257.388	0.588626048055516	374.5	119.929957837108	374.5	123.897155299988
257.949	14.9756064313929	375	130.241229458687	375	123.087153125363
258.51	2.53983261402597	375.5	131.359791148109	375.5	122.277150950737
259.071	-3.45952714377794	376	119.085972316594	376	121.467148776112
259.632	0.753079476362852	376.5	117.814515604323	376.5	120.657146601487
260.194	14.0828148229672	377	123.452799518087	377	119.847144426861
260.755	12.1181502115057	377.5	124.932194259528	377.5	119.037142252236
261.316	16.4173564193621	378	112.306101354982	378	118.22714007761
261.878	3.89992859930285	378.5	108.78853126808	378.5	117.417137902985
262.439	-7.87974399239646	379	103.823116495342	379	116.607135728359
263.001	9.08158346522126	379.5	102.702771931654	379.5	115.797133553734
263.562	-7.30574593297659	380	106.511164392385	380	114.987131379109
264.124	11.9050475206304	380.5	97.2774261449454	380.5	114.177129204483
264.686	-8.16663471317257	381	95.0367203214938	381	113.367127029858
265.247	11.7742124615278	381.5	69.6888268012404	381.5	112.557124855232
265.809	-0.324312431018866	382	88.7691424428826	382	111.747122680607
266.371	3.43129345435717	382.5	98.4882726436423	382.5	110.937120505981
266.933	8.90058815640931	383	94.5834012191655	383	110.127118331356
267.495	15.1010972266896	383.5	91.5069138203813	383.5	109.31711615673
268.057	15.1914668820834	384	85.3762019861346	384	108.507113982105
268.619	13.3740986278858	384.5	97.2166006099268	384.5	107.69711180748
269.181	-5.04108358533021	385	113.889451497221	385	106.887109632854
269.744	13.6168761461318	385.5	133.915361438717	385.5	106.077107458229
270.306	8.56596221426878	386	148.96928016731	386	105.267105283603
270.868	-3.77384699652351	386.5	173.939257811817	386.5	104.457103108978
271.431	-13.8027642390073	387	211.251622967468	387	103.647100934352
271.993	5.03921981830267	387.5	251.068258176543	387.5	102.837098759727
272.556	2.27020677321949	388	294.364144521896	388	102.027096585102
273.118	6.14175811975449	388.5	349.906952492217	388.5	101.217094410476
273.681	14.8079259153971	389	422.407063666801	389	100.407092235851
274.244	5.65512496560909	389.5	509.397630395387	389.5	99.5970900612252
274.806	12.3675419876155	390	603.137610564897	390	98.7870878865998
275.369	10.2581023702806	390.5	701.03878486678	390.5	97.9770857119744
275.932	14.3506472350262	391	816.315152433689	391	97.1670835373489
276.495	-1.41755819611651	391.5	937.423912775214	391.5	96.3570813627235
277.058	14.7163153218738	392	1052.44046400187	392	95.547079188098
277.621	18.383340077848	392.5	1187.33852337305	392.5	94.7370770134726
278.184	9.1356522008735	393	1326.16394334	393	93.9270748388472
278.747	6.79080352684313	393.5	1449.64960575747	393.5	93.1170726642217
279.311	9.25171558339982	394	1566.59559049488	394	92.3070704895963
279.874	7.25033170023405	394.5	1669.1487595558	394.5	91.4970683149708
280.437	24.5572702534235	395	1771.40248219307	395	90.6870661403454
281.001	20.8584453728588	395.5	1869.2209891358	395.5	89.87706396572
281.564	-0.703288373357657	396	1924.13630094774	396	89.0670617910945
282.128	17.5199977533106	396.5	1954.78041411637	396.5	88.2570596164691
282.691	-1.75680478259006	397	1999.65629713939	397	87.4470574418437
283.255	0.351256585526614	397.5	1982.18004562976	397.5	86.6370552672182
283.818	27.2892081624189	398	1948.12663649984	398	85.8270530925928
284.382	9.04341821915718	398.5	1910.90746691701	398.5	85.0170509179674
284.946	29.0203853999625	399	1840.64195635281	399	84.2070487433419
285.51	18.6272353281036	399.5	1762.73551695565	399.5	83.3970465687165
286.074	25.9950916182859	400	1687.60255143202	400	82.587044394091
286.638	8.71228709499585	400.5	1563.27916762169	400.5	81.7770422194656
287.202	9.00547306558262	401	1484.97497248265	401	80.9670400448402
287.766	26.308664661308	401.5	1361.82165990772	401.5	80.1570378702147
288.33	5.2641572147776	402	1225.60492448291	402	79.3470356955893
288.894	9.01390675769854	402.5	1098.92863410162	402.5	78.5370335209639
289.458	12.9905439075398	403	969.059342318362	403	77.7270313463384
290.023	21.713239342877	403.5	853.490601430972	403.5	76.917029171713
290.587	30.189937416109	404	748.679010176613	404	76.1070269970875
291.151	5.65775387337281	404.5	628.428225663791	404.5	75.2970248224621
291.716	29.3062305645314	405	535.102675391255	405	74.4870226478367
292.28	24.0583244670876	405.5	450.758830783285	405.5	73.6770204732112
292.845	21.6527115369622	406	373.678848120665	406	72.8670182985858
293.41	24.0977424719291	406.5	314.36081908332	406.5	72.0570161239604
293.974	21.4927988531571	407	263.871196181601	407	71.2470139493349
294.539	34.4443777575676	407.5	211.918488199694	407.5	70.4370117747095
295.104	2.10983619646961	408	169.212635264233	408	69.627009600084
295.669	20.7689009759389	408.5	143.188747926326	408.5	68.8170074254586
296.234	6.23602556965525	409	116.391570483204	409	68.0070052508332
296.799	18.2933244230029	409.5	96.2090028669425	409.5	67.1970030762077
297.364	12.5844780451012	410	81.6339244996668	410	66.3870009015823
297.929	13.2884729374313	410.5	71.2980222290293	410.5	65.5769987269568
298.494	19.325825926569	411	64.5861588887422	411	64.7669965523314
299.059	10.9853707484697	411.5	52.8288022812458	411.5	63.956994377706
299.625	21.7959713160288	412	40.3158012399108	412	63.1469922030805
300.19	12.4089292313461	412.5	37.8165006903704	412.5	62.3369900284551
300.755	20.7083826850775	413	32.2635194338428	413	61.5269878538297
301.321	13.6883576808761	413.5	35.3728619970077	413.5	60.7169856792042
301.886	17.9425443862126	414	34.0529381531778	414	59.9069835045788
302.452	17.8853751857815	414.5	24.564156679498	414.5	59.0969813299534
303.017	25.4025189155571	415	24.4662027110399	415	58.2869791553279
303.583	24.0915961266249	415.5	24.4261572412481	415.5	57.4769769807025
304.149	15.744660319024	416	15.8964709407108	416	56.666974806077
304.714	28.9522161150878	416.5	13.7020282086993	416.5	55.8569726314516
305.28	14.2835609705307	417	17.8992321116188	417	55.0469704568262
305.846	23.686862351343	417.5	16.2732895550246	417.5	54.2369682822007
306.412	37.840204139604	418	17.0173270163804	418	53.4269661075753
306.978	40.0374605004815	418.5	23.0048402385686	418.5	52.6169639329499
307.544	41.0784714505311	419	17.8305128361598	419	51.8069617583244
308.11	61.8736437576429	419.5	8.11460467861246	419.5	50.996959583699
308.676	66.8225858873665	420	9.47065125142947	420	50.1869574090735
309.243	68.799226174623	420.5	3.51938477708306	420.5	49.3769552344481
309.809	67.3265324419706	421	7.18348736592983	421	48.5669530598227
310.375	93.7885603726925	421.5	12.4255193628215	421.5	47.7569508851972
310.942	92.3312742838584	422	8.04924474796921	422	46.9469487105718
311.508	105.529207621977	422.5	5.66482728414267	422.5	46.1369465359464
312.074	127.204782624012	423	7.42667235602662	423	45.3269443613209
312.641	114.844876236829	423.5	4.54094325156172	423.5	44.5169421866955
313.208	125.587993963827	424	0.822169979868582	424	43.70694001207
313.774	136.829577595561	424.5	8.00026148438011	424.5	42.8969378374446
314.341	162.351806257947	425	8.21443558884616	425	42.0869356628192
314.908	187.243839492882	425.5	4.38289228550939	425.5	41.2769334881937
315.475	201.770931125103	426	10.0219852898437	426	40.4669313135683
316.041	197.750352523316	426.5	16.4751835679754	426.5	39.6569291389428
316.608	206.857907883626	427	16.6469668109914	427	38.8469269643174
317.175	242.179673720052	427.5	13.5228304259802	427.5	38.036924789692
317.742	248.297817522718	428	10.4889896434278	428	37.2269226150665
318.309	279.877724650071	428.5	9.08859468700916	428.5	36.4169204404411
318.877	277.059617722956	429	5.83206446314247	429	35.6069182658157
319.444	304.799412344448	429.5	3.44642949042	429.5	34.7969160911902
320.011	305.522734901987	430	5.52928786318558	430	33.9869139165648
320.578	319.935375134928	430.5	7.40079998375109	430.5	33.1769117419394
321.146	342.071356213704	431	8.57837486082986	431	32.3669095673139
321.713	334.032778839092	431.5	7.51531552252286	431.5	31.5569073926885
322.281	330.714286587845	432	2.57598081977138	432	30.746905218063
322.848	350.258620199783	432.5	4.29481554367564	432.5	29.9369030434376
323.416	350.229586722926	433	10.1741054755141	433	29.1269008688122
323.983	353.029657241545	433.5	8.23486105514313	433.5	28.3168986941867
324.551	351.664505821146	434	4.10212499671054	434	27.5068965195613
325.119	346.656739233192	434.5	5.61610801249935	434.5	26.6968943449358
325.687	349.924312238615	435	-5.81603023829392	435	25.8868921703104
326.255	367.142949712914	435.5	6.43563780263252	435.5	25.076889995685
326.822	325.791940993358	436	3.5110327338186	436	24.2668878210595
327.39	343.624270751538	436.5	1.00549443727825	436.5	23.4568856464341
327.958	326.239027485767	437	12.056833671819	437	22.6468834718087
328.527	350.535215406247	437.5	10.2279380718824	437.5	21.8368812971832
329.095	335.382723509607	438	0.498146828902253	438	21.0268791225578
329.663	323.148629988661	438.5	-5.8313991971446	438.5	20.2168769479323
330.231	344.333653520309	439	5.86317304394688	439	19.4068747733069
330.799	315.359000497387	439.5	15.8504316670603	439.5	18.5968725986815
331.368	316.640624005066	440	14.9480255417513	440	17.786870424056
331.936	327.352215244841	440.5	8.80918662671535	440.5	16.9768682494306
332.505	299.360129804368	441	5.95011281102318	441	16.1668660748052
333.073	312.76216151386	441.5	6.09827359927712	441.5	15.3568639001797
333.642	292.624314585578	442	1.54664640874607	442	14.5468617255543
334.21	274.085734909692	442.5	5.42483227756344	442.5	13.7368595509288
334.779	271.488247888682	443	5.54708233826958	443	12.9268573763034
335.348	266.121952859809	443.5	6.5952212958134	443.5	12.116855201678
335.916	251.54786688042	444	11.6216434671238	444	11.3068530270525
336.485	245.653023740104	444.5	14.7766702496599	444.5	10.4968508524271
337.054	243.261641117026	445	10.1378940669833	445	9.68684867780165
337.623	231.292951430283	445.5	1.95808009055119	445.5	8.87684650317622
338.192	229.304521433104	446	8.35641076492672	446	8.06684432855079
338.761	242.292641668088	446.5	12.2853150377179	446.5	7.25684215392533
339.33	274.433720058045	447	6.44683997929992	447	6.44683997929991
339.899	280.384227095001	447.5	6.30808207754109	447.5	5.63683780467448
340.469	319.099731880528	448	13.3848830079665	448	4.82683563004904
341.038	385.528073300571	448.5	12.0212429347785	448.5	4.0168334554236
341.607	521.107834055127	449	3.68801197540963	449	3.20683128079817
342.177	769.911852706027	449.5	5.77490829180495	449.5	2.39682910617273
342.746	1162.12291004596	450	8.90400769338334	450	1.58682693154729
343.315	1726.06082752323				
343.885	2494.44649100013				
344.455	3505.84706472479				
345.024	4709.87581920245				
345.594	6137.70398909143				
346.164	7712.14070625113				
346.733	9430.26754657423				
347.303	10045.9397054126				
347.873	10036.3081019115				
348.443	9975.539041981				
349.013	10141.6308600739				
349.583	10028.8779157441				
350.153	10098.2703846746				
350.723	10092.2814338128				
351.294	10129.5620847562				
351.864	10223.906603118				
352.434	10150.7678896544				
353.004	10191.5806854513				
353.575	8675.31237331647				
354.145	6986.87320195485				
354.716	5412.80335790773				
355.286	4073.82183869814				
355.857	2933.29304010931				
356.428	2014.1362965647				
356.999	1334.50459988882				
357.569	849.267280746538				
358.14	550.465577224341				
358.711	375.933244621568				
359.282	267.150605625567				
359.853	230.555486608796				
360.424	197.531979046433				
360.995	173.483451754255				
361.566	172.703952769035				
362.137	150.147197536528				
362.709	159.620826954834				
363.28	143.864212303002				
363.851	150.216250537429				
364.423	139.673148271188				
364.994	131.051150833514				
365.566	145.394133281458				
366.137	142.392285051164				
366.709	131.956280750441				
367.281	135.987776736386				
367.852	135.04945182032				
368.424	132.820749566095				
368.996	133.646233096351				
369.568	140.182919814021				
370.14	124.289409643142				
370.712	145.810473391555				
371.284	143.736495234882				
371.856	134.66021722982				
372.428	123.541233049613				
373	132.940352958345				
373.572	141.1883480324				
374.145	122.911654172291				
374.717	123.111759685987				
375.289	134.20967921893				
375.862	121.668614610414				
376.434	117.394662960011				
377.007	123.534235833128				
377.579	123.761274278912				
378.152	109.245252966145				
378.725	108.494817559412				
379.297	100.264786201265				
379.87	107.848413810148				
380.443	97.5344020001221				
381.016	94.4773124183385				
381.589	68.6847294007976				
382.162	97.1598379455023				
382.735	94.7807992038585				
383.308	94.6521604306151				
383.881	85.0489507665203				
384.454	95.817112984442				
385.027	114.924969218633				
385.601	137.409594008827				
386.174	155.487845266841				
386.748	191.748275658617				
387.321	236.807157797152				
387.894	284.418120310098				
388.468	345.856244309928				
389.042	429.237096738482				
389.615	530.623961123645				
390.189	639.430929682839				
390.763	758.483428735945				
391.336	899.714455893605				
391.91	1030.3427566756				
392.484	1182.83401341897				
393.058	1341.3954158927				
393.632	1480.75880104662				
394.206	1611.36314741005				
394.78	1724.17921737389				
395.354	1844.44895521307				
395.928	1918.99492159799				
396.503	1955.03466073805				
397.077	2002.20416067168				
397.651	1969.94809074559				
398.226	1934.17835069455				
398.8	1873.39763577882				
399.375	1778.92477707386				
399.949	1698.46666151893				
400.524	1558.33367981457				
401.098	1467.12659725181				
401.673	1311.49640315188				
402.248	1163.842379492				
402.822	1014.630509836				
403.397	875.272884635397				
403.972	755.109230098586				
404.547	618.125594303591				
405.122	514.854151686717				
405.697	418.518051176831				
406.272	339.154326819501				
406.847	279.622984052453				
407.422	219.77512596234				
407.998	169.3451055346				
408.573	139.588841870343				
409.148	109.120930577689				
409.724	89.6270594832817				
410.299	74.4501322866795				
410.874	66.63005917828				
411.45	54.2407915580677				
412.025	39.9648832542975				
412.601	37.2078870952045				
413.177	31.5564438790325				
413.752	37.361752588913				
414.328	26.7993714024613				
414.904	24.0328939777303				
415.48	24.6266909462067				
416.056	15.1068916168545				
416.632	14.5679706473279				
417.207	18.4678825778323				
417.784	14.9388510544635				
418.36	22.204511350883				
418.936	19.1395767767502				
419.512	8.02898628848506				
420.088	9.25109304738476				
420.664	2.49762389792729				
421.241	11.4681494882368				
421.817	9.94372344828983				
422.393	5.5771306787366				
422.97	7.41443299360949				
423.546	4.07307557664639				
424.123	1.47889695601445				
424.699	10.3214928021291				
425.276	4.77486785836597				
425.853	7.80211302200002				
426.43	15.9270297248694				
427.006	16.6207479064472				
427.583	12.9413327374528				
428.16	9.88496050645083				
428.737	8.04540322561814				
429.314	3.59326095525375				
429.891	5.0234556165306				
430.468	7.29547064132955				
431.045	8.6113119510718				
431.622	6.56162087838489				
432.199	1.78633948512265				
432.777	8.09475693834728				
433.354	9.88097306433527				
433.931	3.92998544059766				
434.509	5.48910288881449				
435.086	-5.85623181411444				
435.664	9.66006682310971				
436.241	-1.66715313410857				
436.819	9.28289311865712				
437.396	11.5249405294423				
437.974	1.06701995952565				
438.552	-5.45528095059583				
439.129	9.60624182369789				
439.707	16.5811275503834				
440.285	11.5937957149168				
440.863	5.90992778950289				
441.441	6.48080733205608				
442.019	1.52616492623635				
442.597	6.09879944236675				
443.175	5.15584511612891				
443.753	9.015676562484				
444.331	14.2729228251044				
444.91	11.8061441162381				
445.488	1.98418059311965				
446.066	9.43757908159026				
446.644	11.3886053846003				
447.223	4.51971112807648				
447.801	10.8611199265786				
448.38	13.6976237551862				
448.958	4.011754079757				
449.537	6.06460204089903				
450.115	9.8261001524666				
450.694	11.752068922965				
451.273	0.797644504638325				
451.852	13.0884541518002				
452.43	7.04078727252345				
453.009	1.92564248107737				
453.588	7.01970110799439				
454.167	5.65748874057963				
454.746	4.86035106553499				
455.325	4.9702936244395				
455.904	8.46964882463183				
456.483	10.8327558850836				
457.062	13.0781889073871				
457.642	7.99785927137141				
458.221	11.5966915150088				
458.8	4.72910765158306				
459.38	13.0274517743121				
459.959	1.34227101539302				
460.538	4.36034917164207				
461.118	16.3145180255738				
461.697	9.92630228818411				
462.277	7.24096154876588				
462.856	-0.556774994635906				
463.436	10.0031003027571				
464.016	8.42729334086668				
464.596	0.996833395689732				
465.175	4.97931615632905				
465.755	6.08220148186248				
466.335	3.97548057534977				
466.915	4.73899182370076				
467.495	1.53834850296308				
468.075	1.53392571509966				
468.655	8.20860988756751				
469.235	2.73310161814599				
469.815	5.45955384464876				
470.395	0.873194584825883				
470.976	4.25686173372285				
471.556	8.93766359597243				
472.136	2.50425561656937				
472.716	-3.92095021813264				
473.297	3.48541620788967				
473.877	2.72234810967808				
474.458	-1.73968995816693				
475.038	7.48963901769712				
475.619	0.108572490729288				
476.199	-4.01508061847631				
476.78	9.74683574794254				
477.361	-2.59609370945436				
477.941	6.16157960599308				
478.522	-2.37614190789844				
479.103	-0.971378915281724				
479.684	0				
480.265	2.48321316168953				
480.846	-4.64457821593514				
481.427	2.48590968426623				
482.008	1.40607321419819				
482.589	-3.35299962564543				
483.17	2.38085056685864				
483.751	-2.3852061145312				
484.332	-2.49588994239874				
484.914	0.651245253030957				
485.495	-4.88038906465832				
486.076	-4.22578117604794				
486.658	4.6570338259741				
487.239	4.65574393144641				
487.82	-3.13988730052824				
488.402	7.57753720178968				
488.984	0.541099979181263				
489.565	1.95003586892888				
490.147	5.09771834853788				
490.728	3.25828858412276				
491.31	6.95258133790955				
491.892	9.66098085403774				
492.474	-3.14629644019491				
493.055	5.42146074548087				
493.637	-1.73192993515901				
494.219	9.41320219042664				
494.801	-1.19212233812975				
495.383	-0.975839190174763				
495.965	-1.30096004283701				
496.547	3.46598438334869				
497.129	-2.38123884976114				
497.712	-0.216560959206807				
498.294	0.216528794705854				
498.876	12.8747464261963				
499.458	2.59239151602215				
500.041	-1.83332479509085				
500.623	8.21195461784703				
501.205	6.38266234035779				
501.788	-0.648965566317548				
502.37	0.540312495630696				
502.953	-1.61878120006907				
503.536	0.540115210949102				
504.118	9.83832424288814				
504.701	-3.45806420838019				
505.283	2.05263677894303				
505.866	3.13262011661175				
506.449	4.21138175784695				
507.032	7.12391079957937				
507.615	3.34391484437547				
508.198	2.26433782886754				
508.781	1.18619504007937				
509.363	6.67995858283551				
509.947	-6.02463539314911				
510.53	7.19994445273474				
511.113	7.08635116717916				
511.696	-0.214754143155783				
512.279	1.18042304369088				
512.862	-0.428658675459704				
513.445	4.17628188846784				
514.029	7.17059125316846				
514.612	1.81829841285383				
515.196	10.7997542484733				
515.779	-0.427865356662047				
516.362	5.66644320735334				
516.946	3.20419007086772				
517.529	2.66978207376525				
518.113	4.05813138322357				
518.697	3.73887134571327				
519.28	6.30232985370339				
519.864	4.16413048056809				
520.448	7.89414502997711				
521.031	2.13158567353699				
521.615	7.14745764707864				
522.199	4.37492254399003				
522.783	-3.73074225951233				
523.367	0.426070628304544				
523.951	2.87455597916144				
524.535	1.16964417651391				
525.119	8.38848188164604				
525.703	0.530043926106015				
526.287	4.98464398547658				
526.871	-6.16734065096823				
527.456	-0.106497811775531				
528.04	0.639707421903314				
528.624	-1.38547681801346				
529.208	0.639171524125871				
529.793	-2.44892717662796				
530.377	5.43496198605151				
530.962	-3.09549578392729				
531.546	2.24005915313409				
532.131	4.69269635319549				
532.715	-0.534414016765047				
533.3	3.64027966839234				
533.884	-2.89457904333248				
534.469	-0.214667805799829				
535.054	4.72782475664736				
535.639	-8.92195169278654				
536.223	1.18362587476796				
536.808	1.40164502477938				
537.393	2.59603621624936				
537.978	2.06306556624924				
538.563	10.2322350200956				
539.148	-0.545375419670703				
539.733	1.09166520172038				
540.318	-5.35066233598677				
540.903	4.14871993825175				
541.488	8.28671934339451				
542.073	1.52503405001239				
542.658	-0.873991865908528				
543.244	4.71130067920191				
543.829	7.47166449570946				
544.414	5.3858065996461				
545	1.75740137111082				
545.585	8.47117439933654				
546.17	-1.98347346637489				
546.756	9.7126585718125				
547.341	-4.64169364765638				
547.927	3.9830003946901				
548.512	1.2191726143238				
549.098	9.32657994201773				
549.684	-0.889467267476992				
550.269	-3.11543634904757				
550.855	-0.333795672691187				
551.441	4.34306384686556				
552.027	4.0133930572981				
552.612	1.78425228380363				
553.198	9.0302498452525				
553.784	-2.56054804552522				
554.37	2.00280928723418				
554.956	4.45047521913094				
555.542	0.111528687751056				
556.128	1.11736290454166				
556.714	0.669918064787634				
557.3	13.5152873508439				
557.887	2.34908914318914				
558.473	0.224046828159004				
559.059	-4.03730763389096				
559.645	2.79843229468774				
560.232	9.50366793330034				
560.818	3.3540744143858				
561.404	-0.559758748592658				
561.991	4.37467134729211				
562.577	5.16029749160629				
563.164	0.224375167998318				
563.75	0.112197718407032				
564.337	2.47000726077166				
564.923	-5.17024102108064				
565.51	3.59968855254618				
566.097	4.84047089920561				
566.683	1.57633647057044				
567.27	1.80340827052367				
567.857	-4.96925328459019				
568.444	2.82640161123109				
569.03	4.75172711158834				
569.617	0				
570.204	3.17085042268733				
570.791	-8.62730384858939				
571.378	16.1429079443276				
571.965	-1.70682706210551				
572.552	-8.31519061507838				
573.139	-2.28073310308532				
573.726	6.50949972756635				
574.313	0.914676411519197				
574.901	-6.52303795768332				
575.488	-9.96804584630411				
576.075	-0.344137127071012				
576.662	0.229627750556761				
577.25	-4.2523867735695				
577.837	3.79708994693287				
578.424	-1.26651610289246				
579.012	-3.80138829924299				
579.599	-2.42429290816967				
580.187	2.89109678465312				
580.774	6.25007399616378				
581.362	-5.21271655769747				
581.95	-1.50712509151853				
582.537	6.26315413609089				
583.125	2.55207224545945				
583.713	-1.04324038962478				
584.3	-3.47786878088995				
584.888	-2.08870256387411				
585.476	1.97397177266007				
586.064	1.39418350235465				
586.652	-3.8353194704726				
587.239	-3.25551808733379				
587.827	-3.72241229775953				
588.415	2.56273878641667				
589.003	-4.66777276333141				
589.591	-5.48809185847594				
590.179	1.75234108985796				
590.768	-2.21985948655458				
591.356	4.32146555840758				
591.944	-1.86760395997673				
592.532	3.50498822875217				
593.12	4.91168415105618				
593.709	4.09499823266033				
594.297	-2.45758284570848				
594.885	-11.1177472788053				
595.474	5.50674652618942				
596.062	-2.34648907819046				
596.65	4.46160045226904				
597.239	0.587343922291509				
597.827	-1.6448042792522				
598.416	-2.70594814586809				
599.004	-2.94682521041168				
599.593	-0.471561722586385				
600.182	-4.95339738300932				
600.77	3.18742911980606				
601.359	-0.591079327420355				
601.948	7.34138600227363				
602.536	4.3790983154743				
603.125	-1.30131955939766				
603.714	8.28460763215881				
604.303	4.03124023467187				
604.892	3.33019675914247				
605.481	-11.082569305085				
606.07	3.9382986717502				
606.659	-6.682226919062				
607.248	-1.0740604376739				
607.837	-3.22374301654173				
608.426	3.46561782559887				
609.015	6.45988068895668				
609.604	-3.83042112008844				
610.193	2.63512507783796				
610.782	-2.63703934245806				
611.372	2.64002271018072				
611.961	-5.40741390444664				
612.55	-3.85238693643518				
613.14	-4.46212045703249				
613.729	1.93210435082427				
614.318	-6.28803761560038				
614.908	-5.93383677613542				
615.497	4.24558933189453				
616.087	0.607409079098062				
616.676	-0.850399403832846				
617.266	-8.2626141933828				
617.855	-3.16046142661939				
618.445	-2.06860975355425				
619.035	1.21835705297263				
619.624	4.1476904669283				
620.214	9.77172955216552				
620.804	0.366908446299167				
621.393	-6.60975109686457				
621.983	0.367424999961656				
622.573	11.266814807038				
623.163	6.49318113117965				
623.753	2.82247378572696				
624.343	-4.42314640039831				
624.933	1.84462314818513				
625.523	-6.53221529736474				
626.113	4.19938323098375				
626.703	3.21440991244216				
627.293	2.59881121067172				
627.883	2.84916157423069				
628.473	5.70275175036742				
629.063	-8.56090625320298				
629.653	2.484849969505				
630.243	-1.61733365434159				
630.834	0.24914636661731				
631.424	5.1135065159094				
632.014	-0.374574891725084				
632.605	-1.49920270178224				
633.195	-5.75009829330962				
633.785	3.37655076979104				
634.376	-3.25263867015619				
634.966	5.75639354064544				
635.557	5.50321315712629				
636.147	0				
636.738	-2.87864871362321				
637.328	2.5052694876232				
637.919	4.63842896949966				
638.51	3.5115745843313				
639.1	4.51567779511269				
639.691	-2.7578593558299				
640.282	8.15357365742258				
640.872	3.26813468412798				
641.463	-2.01424323137076				
642.054	10.5893436065967				
642.645	3.40808782972648				
643.236	-7.83558897893743				
643.826	-4.68142066647674				
644.417	3.42240589141328				
645.008	1.14319662870145				
645.599	-0.890608305856775				
646.19	0.50959003096623				
646.781	-9.43355681752562				
647.372	-6.76362578962842				
647.963	0.766687994104757				
648.555	-3.71086057622224				
649.146	-0.128193701714232				
649.737	9.25835946695055				
650.328	0.386754430080222				
650.919	3.48829191394928				
651.51	1.94149926156452				
652.102	-3.50034804017839				
652.693	2.07593438243607				
653.284	3.76787858535127				
653.876	7.94171790132331				
654.467	-2.34688016594281				
655.059	6.00628708896518				
655.65	7.46291776516165				
656.241	2.36093214927765				
656.833	11.2848974252911				
657.424	9.98001980723005				
658.016	4.7314368241727				
658.608	5.65731453077135				
659.199	7.50980510387771				
659.791	4.88524528494774				
660.382	7.40903511872831				
660.974	5.70045852356351				
661.566	5.44956686754188				
662.158	-3.59630194641761				
662.749	-5.46451485262404				
663.341	-3.20152322566263				
663.933	-4.00607431485305				
664.525	4.94013351788399				
665.117	8.6791864374728				
665.709	-12.7041756966239				
666.301	10.175757851008				
666.892	-1.60820614966763				
667.484	-4.42840815290794				
668.076	2.55298460188809				
668.669	2.28546828431743				
669.261	0.941747669759293				
669.853	4.17453786351093				
670.445	10.5152420831303				
671.037	10.9315963448424				
671.629	11.7435937135554				
672.221	-0.270057070413231				
672.813	13.6455915994984				
673.406	0.540834473537947				
673.998	7.98415982678384				
674.59	4.61025785434695				
675.183	8.14819290903755				
675.775	5.70635640715983				
676.367	13.7482395506882				
676.96	9.69120046512395				
677.552	11.3301730742667				
678.144	9.69376962220897				
678.737	11.6172440222764				
679.329	12.8537920495175				
679.922	-3.00858240136839				
680.515	7.39064931016115				
681.107	12.3317317713729				
681.7	3.02089114635081				
682.292	3.16486969423521				
682.885	6.48080688455474				
683.478	9.78327143463294				
684.07	6.60747557180959				
684.663	-1.10326100175768				
685.256	0.967071329327832				
685.849	1.79906950397779				
686.441	-6.23440601509745				
687.034	9.56838453418098				
687.627	7.22291216345341				
688.22	23.2332768176805				
688.813	6.40884014770221				
689.406	20.3574123979048				
689.999	26.3664147660336				
690.592	29.6333241154992				
691.184	40.4532824005725				
691.777	51.5203248592152				
692.371	66.8140470955463				
692.964	83.2607144616772				
693.557	88.6787753628106				
694.15	93.9280797084908				
694.743	113.212422565025				
695.336	130.0763850695				
695.929	138.177053423357				
696.522	155.613326798657				
697.116	175.438399082085				
697.709	180.839547027819				
698.302	192.393251519208				
698.895	200.640083258011				
699.489	207.805735105703				
700.082	214.169854896512				
700.675	223.375391082313				
701.269	221.886720591606				
701.862	234.289280474732				
702.456	222.97369122509				
703.049	227.214467882342				
703.643	198.080887168246				
704.236	199.0495254363				
704.83	191.825500137158				
705.423	182.590761253027				
706.017	166.848215058717				
706.61	147.414438989464				
707.204	141.265299645011				
707.798	137.620686150911				
708.391	102.869964973042				
708.985	102.81215101396				
709.579	93.8275235343496				
710.172	83.624981558656				
710.766	60.4488834485107				
711.36	56.4150238400066				
711.954	49.8533005814544				
712.547	38.3040587263262				
713.141	24.933940764967				
713.735	14.6087773706321				
714.329	18.890072683241				
714.923	-2.50896053392149				
715.517	7.70321324438307				
716.111	1.93233977689419				
716.705	13.9658801446872				
717.299	-13.2317059843796				
717.893	-5.80835903295926				
718.487	-12.9909694323238				
719.081	5.68835874626968				
719.675	7.78856440524895				
720.269	13.5001433517245				
720.863	-9.92549547495188				
721.457	1.05438547047893				
722.051	-0.60330544765962				
722.646	4.83386853682905				
723.24	-14.065916007303				
723.834	3.784252041877				
724.428	0.910040530956243				
725.022	1.82450747942203				
725.617	0.456910622231939				
726.211	6.40235550156801				
726.805	-6.24591662246354				
727.4	-2.28644152351751				
727.994	5.95181633848981				
728.588	-7.02966329561628				
729.183	4.74474173444087				
729.777	-6.44102387916506				
730.372	10.7592977082408				
730.966	2.7733832614742				
731.561	7.40104576105383				
732.155	-5.39921169773589				
732.75	1.69706790372411				
733.344	-7.87425498315888				
733.939	5.41065987314736				
734.533	0.465292932869656				
735.128	-3.8901571614869				
735.723	-4.21159272517006				
736.317	-0.937870187932197				
736.912	5.48079721900399				
737.507	8.92834692400691				
738.101	-9.55316469406449				
738.696	-6.57015660533827				
739.291	2.34961809896916				
739.886	4.24583679382484				
740.48	5.19861692590974				
741.075	4.57639065958264				
741.67	0				
742.265	6.04509124524721				
742.86	-1.59292338878508				
743.454	-6.05995750962701				
744.049	7.50361264725617				
744.644	-2.55864176924688				
745.239	2.56103221486119				
745.834	7.20195977064928				
746.429	3.84723177851499				
747.024	0.481990476076326				
747.619	10.9441441772782				
748.214	-3.38554913069876				
748.809	-8.71983488765875				
749.404	-1.13262416480919				
749.999	3.56748421992571				
750.594	2.76079981302064				
751.19	-5.03997645684022				
751.785	-2.11415568190017				
752.38	-3.58602990671587				
752.975	-0.654240411782616				
753.57	2.79950813654362				
754.165	-6.1253643087141				
754.761	0.828629946368072				
755.356	-3.31954028315889				
755.951	7.31627034604589				
756.546	6.17385710409729				
757.142	13.0647129378467				
757.737	0.336433577087802				
758.332	-1.18200846990934				
758.928	3.21932930848577				
759.523	1.01533368862989				
760.118	7.27418987833461				
760.714	4.08497574041042				
761.309	-3.76143502606599				
761.905	5.14473025417198				
762.5	0				
763.096	-4.98942220849645				
763.691	10.3393575837034				
764.287	8.46250114890331				
764.882	17.1468414957869				
765.478	9.20104553852064				
766.073	-0.347840324468326				
766.669	-2.08523894526602				
767.264	-3.99544983888238				
767.86	-3.12804178021579				
768.456	15.4808151247508				
769.051	4.17784436167433				
769.647	2.60421995642492				
770.243	-8.15167275981228				
770.838	4.16836971907592				
771.434	1.04770559550633				
772.03	-3.33970703276602				
772.625	-5.28654863709308				
773.221	2.64687261146514				
773.817	0				
774.413	3.53781180764658				
775.009	9.59695424974294				
775.604	19.3033260847139				
776.2	0.359341979194352				
776.796	-7.93990409460953				
777.392	-2.1666676577416				
777.988	0.901530098672853				
778.584	-12.2760321500688				
779.18	-1.98892626885937				
779.775	10.8722009571181				
780.371	10.3430870940107				
780.967	13.9853688853985				
781.563	14.5849987661581				
782.159	9.14418487749228				
782.755	5.67489957494232				
783.351	21.1331099298879				
783.947	0.369678281413788				
784.543	-4.39932860965671				
785.139	2.91556067463916				
785.735	4.76993183578435				
786.332	6.28021216887786				
786.928	7.99692449855621				
787.524	17.8541529440276				
788.12	3.90415702814651				
788.716	11.3602857240114				
789.312	4.49822536554827				
789.908	7.00816128717119				
790.505	22.8102146025221				
791.101	15.3527473110957				
791.697	4.66485105668899				
792.293	21.8773455134378				
792.889	12.6254201647764				
793.486	10.0337285619419				
794.082	13.6785535643064				
794.678	10.8385908372918				
795.275	21.7532367398337				
795.871	14.7889097803418				
796.467	20.5173593952864				
797.064	8.40626049374787				
797.66	11.8250171261818				
798.256	29.0422081527322				
798.853	3.46131563139008				
799.449	10.4476512666996				
800.045	19.2657421409092				
800.642	15.2797265255487				
801.238	19.9300780768027				
801.835	2.15909179165362				
802.431	13.2867187178684				
803.028	15.4458105095221				
803.624	13.2867187178684				
804.221	7.97203123072106				
804.817	4.31818358330724				
805.414	16.1101464454155				
806.01	7.63986326277435				
806.607	-0.498251951920066				
807.203	1.99300780768027				
807.8	4.4842675672806				
808.397	17.6049023011757				
808.993	7.97203123072106				
809.59	1.66083983973355				
810.186	-4.65035155125395				
810.783	7.47377927880099				
811.38	10.7954589582681				
811.976	2.65734374357369				
812.573	3.81993163138718				
813.17	-3.81993163138718				
813.766	-0.332167967946711				
814.363	7.47377927880099				
814.96	11.7919628621082				
815.557	-2.32517577562698				
816.153	8.80245115058784				
816.75	9.30070310250791				
817.347	0.996503903840133				
817.944	7.63986326277435				
818.54	7.30769529482764				
819.137	-3.65384764741382				
819.734	9.30070310250791				
820.331	1.82692382370691				
820.928	1.32867187178684				
821.525	-5.81293943906744				
822.121	0.498251951920066				
822.718	7.47377927880099				
823.315	4.81643553522731				
823.912	-4.15209959933389				
824.509	3.15559569549375				
825.106	-3.81993163138718				
825.703	-13.6188866858151				
826.3	2.9895117115204				
826.897	14.7814745736286				
827.494	12.7884667659484				
828.091	3.15559569549375				
828.688	-0.166083983973355				
