Wavelength, nm	Sc/Rc	Wavelength	Signal	Baseline_Result	Baseline_Y
Raw CCD	counts/uA	nm	Sc/Rc		
	Fully Corrected Emission Spectrum		Water Raman		Baseline of "Signal"
247.749	2.56446509334236	365	131.695380839815	365	144.296048481756
248.309	2.4219948103789	365.5	125.948898127803	365.5	143.427551911624
248.868	6.69610329928284	366	121.481819413916	366	142.559055341492
249.428	19.5184287659947	366.5	120.863636349732	366.5	141.690558771359
249.988	4.8439896207578	367	130.100399329743	367	140.822062201227
250.549	3.01808179967043	367.5	119.920347041468	367.5	139.953565631094
251.109	3.5420941269465	368	125.298400735062	368	139.085069060962
251.669	-2.22764486595928	368.5	143.17784916628	368.5	138.21657249083
252.229	-5.46827599920984	369	142.618681986168	369	137.348075920697
252.79	4.38256446879937	369.5	140.848746598912	369.5	136.479579350565
253.35	1.74058283726591	370	141.731545043008	370	135.611082780433
253.911	10.7944905172185	370.5	134.7425862103	370.5	134.7425862103
254.471	-2.85282835009421	371	137.536738199733	371	133.874089640168
255.032	-2.6055421360846	371.5	135.641036745811	371.5	133.005593070035
255.592	1.74578102612352	372	135.079070588665	372	132.137096499903
256.153	2.62957756821126	372.5	138.078009362654	372.5	131.268599929771
256.714	1.75632805249171	373	133.774144613215	373	130.400103359638
257.275	-7.31037411638279	373.5	122.814524313303	373.5	129.531606789506
257.835	4.44490395277916	374	114.060458072264	374	128.663110219373
258.396	6.27019312136974	374.5	122.915838123199	374.5	127.794613649241
258.957	1.16039034149978	375	129.973794771303	375	126.926117079109
259.518	2.58332562517983	375.5	121.507281958371	375.5	126.057620508976
260.08	-10.3644349320168	376	115.496438109388	376	125.189123938844
260.641	1.96863112889041	376.5	116.600432213403	376.5	124.320627368712
261.202	1.45932189807957	377	111.362515050972	377	123.452130798579
261.763	6.14659423641601	377.5	104.222038293335	377.5	122.583634228447
262.325	3.23726950016361	378	106.324683891985	378	121.715137658314
262.886	0	378.5	105.262518109658	378.5	120.846641088182
263.447	-5.04415279267189	379	102.818443207388	379	119.97814451805
264.009	4.62128749232674	379.5	100.515877958621	379.5	119.109647947917
264.571	7.26724582334401	380	97.0939277803381	380	118.241151377785
265.132	5.11363887503639	380.5	92.6450600252086	380.5	117.372654807652
265.694	5.41901157451926	381	90.0822634717859	381	116.50415823752
266.256	6.99562024638817	381.5	89.2487857107049	381.5	115.635661667388
266.817	2.25820118289891	382	84.7671952422233	382	114.767165097255
267.379	2.98538270845075	382.5	81.0449291907978	382.5	113.898668527123
267.941	14.7378746930265	383	78.9849215277645	383	113.030171956991
268.503	6.16470649152181	383.5	82.697354446535	383.5	112.161675386858
269.065	-2.87520950869495	384	84.9557750723867	384	111.293178816726
269.627	-2.18434166933046	384.5	89.862175335007	384.5	110.424682246593
270.19	20.8629774706959	385	96.867482082067	385	109.556185676461
270.752	4.41331375541869	385.5	96.5502004899711	385.5	108.687689106329
271.314	-0.738918801887139	386	115.599683200534	386	107.819192536196
271.876	4.31636850418191	386.5	143.808654560472	386.5	106.950695966064
272.439	4.04052162307929	387	164.823094165888	387	106.082199395931
273.001	2.40617063038707	387.5	193.799935964445	387.5	105.213702825799
273.564	-2.5683105758268	388	234.509986820051	388	104.345206255667
274.126	9.55106381493349	388.5	283.423499870758	388.5	103.476709685534
274.689	31.6774653288502	389	340.327843011391	389	102.608213115402
275.252	-3.33658934773828	389.5	404.033455518154	389.5	101.73971654527
275.814	12.3058458972642	390	484.35077480325	390	100.871219975137
276.377	-4.40810143337167	390.5	564.575253645278	390.5	100.002723405005
276.94	11.2475003060529	391	675.584861980161	391	99.1342268348724
277.503	-2.14048701735044	391.5	788.257335448812	391.5	98.26573026474
278.066	14.6051313835397	392	894.486329944696	392	97.3972336946076
278.629	5.67482257922527	392.5	1034.23042289424	392.5	96.5287371244752
279.192	5.34860466905449	393	1177.42124878448	393	95.6602405543428
279.755	0.607562465709076	393.5	1265.53560206964	393.5	94.7917439842104
280.319	3.18222628101547	394	1397.33440112333	394	93.923247414078
280.882	8.64222178535882	394.5	1527.55281866175	394.5	93.0547508439456
281.445	-0.452985204293048	395	1625.51766712935	395	92.1862542738133
282.008	12.3165899737759	395.5	1730.03661593735	395.5	91.3177577036809
282.572	16.2664450940808	396	1816.33625620596	396	90.4492611335485
283.135	-0.150785113914962	396.5	1869.57083867337	396.5	89.5807645634161
283.699	11.8646739300322	397	1922.5286435703	397	88.7122679932837
284.263	6.27468477079834	397.5	1937.906514629	397.5	87.8437714231513
284.826	8.45846379493692	398	1934.50186254469	398	86.975274853019
285.39	17.757979557415	398.5	1918.03104828747	398.5	86.1067782828866
285.954	9.60942051796202	399	1857.77369736183	399	85.2382817127542
286.518	10.8618975547425	399.5	1804.38390616626	399.5	84.3697851426218
287.081	18.0779119257808	400	1742.60761051002	400	83.5012885724894
287.645	18.3498989675842	400.5	1640.12033709415	400.5	82.632792002357
288.209	4.22296813751575	401	1537.72291899181	401	81.7642954322246
288.773	32.5233240369794	401.5	1406.98291206155	401.5	80.8957988620923
289.338	19.7253687039106	402	1293.07886733718	402	80.0273022919599
289.902	13.2061516714363	402.5	1159.17018479775	402.5	79.1588057218275
290.466	17.7472121136321	403	1038.9370076681	403	78.2903091516951
291.03	26.0074738120576	403.5	921.743199979644	403.5	77.4218125815627
291.595	16.208974273861	404	800.764397510753	404	76.5533160114304
292.159	16.2715346876647	404.5	694.451466165545	404.5	75.6848194412979
292.724	12.8173966783283	405	585.832581347727	405	74.8163228711656
293.288	20.9490020356657	405.5	502.232239055802	405.5	73.9478263010332
293.853	8.30218573371608	406	421.183251711992	406	73.0793297309008
294.417	23.5527274797177	406.5	345.400592712604	406.5	72.2108331607684
294.982	21.4750667599238	407	280.866848172775	407	71.342336590636
295.547	10.2377895828364	407.5	233.011636371025	407.5	70.4738400205037
296.111	20.0484417336149	408	190.862046348812	408	69.6053434503713
296.676	12.8413199778927	408.5	149.971719487739	408.5	68.7368468802389
297.241	23.6141746932122	409	130.617860190547	409	67.8683503101065
297.806	0.411565720882031	409.5	102.095791636301	409.5	66.9998537399741
298.371	25.2287499412276	410	75.2357550490517	410	66.1313571698417
298.936	20.2221702341754	410.5	63.7842755455273	410.5	65.2628605997093
299.501	16.7890155668783	411	62.8511800038721	411	64.394364029577
300.067	18.4182056512506	411.5	63.5553464595176	411.5	63.5258674594446
300.632	22.1305316631885	412	54.2381425140159	412	62.6573708893122
301.197	5.60096420695843	412.5	38.1239633295576	412.5	61.7888743191798
301.763	27.3921669033674	413	41.5966765361427	413	60.9203777490474
302.328	17.7995869202203	413.5	34.03982255545	413.5	60.051881178915
302.893	32.7704698598521	414	31.6861309525713	414	59.1833846087826
303.459	28.1162763032351	414.5	30.037073666396	414.5	58.3148880386503
304.025	18.9620277854844	415	24.7194668814301	415	57.4463914685179
304.59	20.4679132156397	415.5	21.8463426248381	415.5	56.5778948983855
305.156	32.3008910047749	416	23.3370089139465	416	55.7093983282531
305.722	28.8848717210777	416.5	25.9938646948913	416.5	54.8409017581207
306.287	34.7613029883224	417	23.2869138587224	417	53.9724051879883
306.853	40.8376225233789	417.5	18.7855309728109	417.5	53.103908617856
307.419	37.8162861312168	418	4.70308744663168	418	52.2354120477236
307.985	41.2629422456	418.5	9.60040997006273	418.5	51.3669154775912
308.551	49.744160006578	419	17.9209195586545	419	50.4984189074588
309.117	70.2657624785834	419.5	12.2758484193694	419.5	49.6299223373264
309.683	72.5126370266519	420	12.998003477074	420	48.761425767194
310.25	77.3997545015366	420.5	5.34181028139829	420.5	47.8929291970616
310.816	69.9893813274998	421	4.03800115573565	421	47.0244326269293
311.382	91.3940528063041	421.5	7.81400380825654	421.5	46.1559360567969
311.949	107.251388290271	422	7.73256767566544	422	45.2874394866645
312.515	117.596398010882	422.5	5.21263264699239	422.5	44.4189429165321
313.081	116.546520064512	423	0.0980560152937644	423	43.5504463463997
313.648	127.422175305301	423.5	-1.74290739586772	423.5	42.6819497762673
314.215	139.931758512399	424	7.56991153824201	424	41.813453206135
314.781	150.920789960767	424.5	7.85822868288748	424.5	40.9449566360026
315.348	163.347921550718	425	12.3434736436425	425	40.0764600658702
315.915	173.517261488001	425.5	8.46332143103542	425.5	39.2079634957378
316.481	187.572754659858	426	2.88052341340295	426	38.3394669256054
317.048	204.65499581082	426.5	7.16102150906889	426.5	37.470970355473
317.615	202.455383511535	427	9.50420615652066	427	36.6024737853406
318.182	237.394748783859	427.5	6.25723426405204	427.5	35.7339772152083
318.749	243.361390925165	428	12.5842895205719	428	34.8654806450759
319.316	265.395974444348	428.5	0.92386211258219	428.5	33.9969840749435
319.883	281.227121203471	429	2.77959379663756	429	33.1284875048111
320.451	269.072429309667	429.5	2.05854248963386	429.5	32.2599909346787
321.018	300.697546287785	430	3.31977364579892	430	31.3914943645463
321.585	307.657183865347	430.5	7.95859780676438	430.5	30.522997794414
322.153	321.588005428826	431	6.45978034903606	431	29.6545012242816
322.72	308.696045842964	431.5	7.48819572375718	431.5	28.7860046541492
323.287	330.09399086154	432	1.03093615650963	432	27.9175080840168
323.855	329.677511624922	432.5	2.24926085774974	432.5	27.0490115138844
324.423	334.874829432358	433	-1.13965314786546	433	26.180514943752
324.99	328.684004402376	433.5	-0.882939636483947	433.5	25.3120183736196
325.558	322.263638019222	434	2.21307104683079	434	24.4435218034873
326.126	333.121040800132	434.5	-0.273766241466266	434.5	23.5750252333549
326.693	324.442133547892	435	-0.492969988601202	435	22.7065286632225
327.261	328.564477923179	435.5	5.78215726771996	435.5	21.8380320930901
327.829	304.852759803783	436	9.14044918709119	436	20.9695355229577
328.397	326.825150415081	436.5	4.35479219250337	436.5	20.1010389528253
328.965	321.448246117825	437	4.65803404897601	437	19.232542382693
329.533	306.880434446736	437.5	9.17351868176418	437.5	18.3640458125606
330.101	322.712220158959	438	5.02457399016392	438	17.4955492424282
330.669	311.406381934687	438.5	-1.85679797441741	438.5	16.6270526722958
331.238	310.194156158075	439	1.59921481052563	439	15.7585561021634
331.806	299.579482057812	439.5	-0.0818533763044185	439.5	14.890059532031
332.374	303.373745265801	440	1.83412062502661	440	14.0215629618987
332.943	287.597059522214	440.5	6.30807167805176	440.5	13.1530663917662
333.511	278.311811795068	441	7.63167786314365	441	12.2845698216339
334.08	267.915671282806	441.5	3.78283772882494	441.5	11.4160732515015
334.648	269.405216896718	442	-0.204837559496239	442	10.5475766813691
335.217	259.128016646977	442.5	2.84043438816786	442.5	9.6790801112367
335.785	247.040082260124	443	8.35241935379104	443	8.81058354110432
336.354	241.253500935621	443.5	1.61995644912387	443.5	7.94208697097194
336.923	246.885139077503	444	-6.245334651218	444	7.07359040083956
337.492	224.065194396919	444.5	2.85085591883625	444.5	6.2050938307072
338.061	234.896178377988	445	8.48773529659094	445	5.33659726057479
338.629	221.237908781424	445.5	4.8132337858124	445.5	4.46810069044241
339.198	233.742770922576	446	5.91255408339231	446	3.59960412031003
339.767	245.685761642869	446.5	1.01260538974582	446.5	2.73110755017765
340.337	244.141945036822	447	-0.340534647646039	447	1.86261098004528
340.906	277.215885764157	447.5	4.85168235823852	447.5	0.994114409912868
341.475	336.369729029544	448	4.92709394035526	448	0.125617839780489
342.044	411.211680406983	448.5	4.22121979141176	448.5	-0.74287873035189
342.613	582.218034639895	449	0.737053097856386	449	-1.61137530048427
343.183	861.757182214658	449.5	-6.01313532122009	449.5	-2.47987187061668
343.752	1300.94887494413	450	-3.34836844074904	450	-3.34836844074906
344.322	1924.04142454952				
344.891	2764.42185138314				
345.461	3813.2781634735				
346.03	5060.14850794636				
346.6	6537.08097486517				
347.17	8121.11657606622				
347.739	8601.01520860463				
348.309	8641.10106651509				
348.879	8632.38566153233				
349.449	8579.06737301971				
350.019	8711.24319570729				
350.589	8611.03181240654				
351.159	8673.71552667713				
351.729	8669.33115584524				
352.299	8711.07019809703				
352.87	8791.55942470238				
353.44	8737.26350181155				
354.01	8757.52924924868				
354.581	7260.9888954988				
355.151	5723.88049600057				
355.722	4299.24890476367				
356.292	3114.05311690623				
356.863	2144.82750937656				
357.434	1421.17773077598				
358.004	903.356976698443				
358.575	573.515535414003				
359.146	367.708270545524				
359.717	274.757801346285				
360.288	221.805268743783				
360.859	202.712690859139				
361.43	184.328365789589				
362.001	160.023608394887				
362.572	140.263793738774				
363.143	152.54301941718				
363.714	141.459638915794				
364.286	132.076400233399				
364.857	132.520993857798				
365.428	126.771215100308				
366	121.481819413916				
366.571	121.807748900334				
367.143	129.990395926157				
367.714	116.735781216006				
368.286	138.231711715413				
368.858	143.563113885949				
369.43	140.689733623732				
370.001	141.723660566705				
370.573	134.326217512173				
371.145	138.322436806985				
371.717	133.953691197596				
372.289	137.52164781533				
372.861	135.742026744897				
373.433	124.559545189599				
374.005	114.064177728049				
374.578	124.753400357588				
375.15	129.044573801841				
375.722	116.931662346884				
376.295	116.51284649554				
376.867	113.611038555979				
377.439	104.507136994426				
378.012	106.367627139947				
378.584	104.811993118361				
379.157	102.125165294017				
379.73	99.1539106840174				
380.302	94.4164870296762				
380.875	90.3152618681381				
381.448	89.5153608869691				
382.021	84.5708831067047				
382.594	80.4873116930541				
383.167	79.4684105864877				
383.74	84.6960275772811				
384.313	86.4531099602034				
384.886	96.6961559284203				
385.459	95.9729991421747				
386.032	117.338992354732				
386.606	149.015547463949				
387.179	173.087638478365				
387.752	213.626098517574				
388.326	265.062702330687				
388.899	328.711225177741				
389.473	400.081375721059				
390.046	491.682699363048				
390.62	587.55918510865				
391.194	722.097537134568				
391.767	843.322000482275				
392.341	984.118154179874				
392.915	1158.71421346447				
393.489	1263.25726370461				
394.063	1415.21460069748				
394.637	1557.31047600487				
395.211	1666.24665189666				
395.785	1786.94116165902				
396.359	1853.2902649551				
396.933	1917.48241344532				
397.507	1937.93830143644				
398.082	1933.10530338009				
398.656	1904.61670340021				
399.23	1827.39151230809				
399.805	1774.93503366842				
400.379	1663.96575250056				
400.954	1548.64939543853				
401.528	1400.04769951428				
402.103	1268.11584370635				
402.677	1112.1406582962				
403.252	983.321291178548				
403.827	839.591268470409				
404.402	716.117600235932				
404.977	590.289241524161				
405.551	494.174501736496				
406.126	401.086398413108				
406.701	317.998486625214				
407.276	252.022379266344				
407.852	204.558884861816				
408.427	154.217119298726				
409.002	130.532000683358				
409.577	97.3295071415428				
410.152	69.882240208865				
410.728	62.8123215106577				
411.303	63.444509579809				
411.879	58.4251744652223				
412.454	38.619872456003				
413.03	41.5991899033101				
413.605	32.419681879654				
414.181	31.9620862911799				
414.756	27.2483389836476				
415.332	22.3463255340926				
415.908	22.7440369548286				
416.484	25.992287281304				
417.06	22.8694305271356				
417.635	15.8803870503782				
418.211	2.3821260833028				
418.787	17.9395176386914				
419.363	12.7116110603233				
419.94	13.4127281311284				
420.516	5.14344568807274				
421.092	4.60142514956592				
421.668	8.53627406981503				
422.244	6.38372040488777				
422.821	2.65211263111148				
423.397	-2.85951386284252				
423.974	7.29960816662909				
424.55	8.0169340448223				
425.127	12.7221006291839				
425.703	5.2346093060384				
426.28	4.06973679218733				
426.856	10.5170581332489				
427.433	5.71086424890976				
428.01	12.5250871797783				
428.587	-0.412447816613275				
429.164	4.3169086810201				
429.741	0.615829973596079				
430.317	7.69402198601214				
430.894	6.25933814846035				
431.472	7.68049913319663				
432.049	0.715176856165986				
432.626	2.34890653152123				
433.203	-2.55280412554367				
433.78	1.73652803405982				
434.357	0.613816097995283				
434.935	-0.922764758394173				
435.512	5.93695321255881				
436.09	8.7863804266242				
436.667	3.16530106237553				
437.244	7.24048892501035				
437.822	8.03896693807309				
438.4	-1.62752849818214				
438.977	1.52643754503067				
439.555	-0.203266497874314				
440.133	3.04522351355517				
440.711	7.50485546223715				
441.288	5.96967095687009				
441.866	0.302393456841371				
442.444	2.11332984245881				
443.022	8.34471786512378				
443.6	-0.502301010483994				
444.178	-5.32013010535892				
444.756	8.62539850291517				
445.334	5.00826663722195				
445.913	6.20011158892664				
446.491	1.09732023292378				
447.069	0.0994919937119624				
447.647	5.8525059586178				
448.226	3.95404501097817				
448.804	3.44524178363362				
449.383	-5.30262260526991				
449.961	-3.72586551490531				
450.54	1.66449971348026				
451.118	3.03116015707408				
451.697	1.0742842792104				
452.276	4.28919089314793				
452.854	0.4861589886056				
453.433	2.5255170776642				
454.012	2.52432441482828				
454.591	5.52830878783919				
455.17	-1.55052724884719				
455.749	5.32840086728745				
456.328	4.64736533453898				
456.907	1.25756466790555				
457.486	4.05940061593028				
458.065	0.869214620069601				
458.644	-5.21568438855048				
459.224	1.92884045908595				
459.803	5.2830943161791				
460.382	9.20761674216627				
460.961	-0.479469903531212				
461.541	1.91445938154092				
462.12	-1.43356576151316				
462.7	0.859796006128726				
463.279	-2.95753164612998				
463.859	3.14086906544532				
464.439	2.75618584754636				
465.018	4.74672233641089				
465.598	-0.189755680589889				
466.178	8.90936235216881				
466.758	3.97282009720854				
467.337	9.33963818479458				
467.917	0.752348539075594				
468.497	-3.75657790950793				
469.077	-3.75246099882184				
469.657	4.12268759107946				
470.237	-1.02993355305154				
470.817	-4.49429569464478				
471.398	0.28060976421763				
471.978	-2.52175637478486				
472.558	2.70922932395278				
473.138	4.95227507314672				
473.719	-2.14859984232502				
474.299	0.186636825662165				
474.879	2.51496494935964				
475.46	7.26409276671544				
476.04	-2.04903760945994				
476.621	1.30132075097017				
477.201	4.73321602083902				
477.782	4.91552212350322				
478.363	2.50214753700361				
478.943	-4.07404914298845				
479.524	-3.61103726763212				
480.105	-0.277812100072424				
480.686	-3.52050675968342				
481.267	-1.20506823794648				
481.848	6.30795401938259				
482.429	0.185565120942409				
483.01	-0.64950900872168				
483.591	0				
484.172	-6.14344173026577				
484.753	-1.11723522657824				
485.334	-2.23341089347073				
485.915	2.88197207554239				
486.497	-5.85374444840844				
487.078	4.92259717937398				
487.659	-2.22907716416516				
488.241	1.85733590252412				
488.822	-3.06374131956616				
489.404	0.46451945465648				
489.985	6.8824710630766				
490.567	11.8278292273789				
491.148	-1.58454555453389				
491.73	3.81860596809068				
492.312	0.186159579694685				
492.893	1.86071620114328				
493.475	-3.80886614550034				
494.057	2.50484348568225				
494.639	4.55326827755082				
495.221	6.23191961325066				
495.803	5.20813261979917				
496.385	0.278813483641376				
496.967	1.94976756336748				
497.549	2.32187705098894				
498.131	5.48045347165715				
498.713	-4.73413649275715				
499.295	0.092707242649508				
499.877	8.79069909711579				
500.46	3.52028071533812				
501.042	-4.26900274962892				
501.624	-3.15477365772644				
502.207	-1.66918910541321				
502.789	-2.03741176671932				
503.372	-2.50111767807891				
503.954	-2.50403204194587				
504.537	-2.22508282033296				
505.119	1.85352629807369				
505.702	4.44796360226256				
506.284	1.76019607041577				
506.867	-3.88934825824438				
507.45	-0.740388369922418				
508.033	4.43964202868198				
508.616	-2.6825400023862				
509.198	1.75676098831749				
509.781	-0.830928413049927				
510.364	2.85856056595434				
510.947	-1.10533326875772				
511.53	2.39481567107634				
512.113	5.70955183356837				
512.697	2.11516383188672				
513.28	3.21557539630642				
513.863	1.37733104949933				
514.446	4.77189940472375				
515.029	-0.642011440837851				
515.613	1.00923505478753				
516.196	-1.65130779209587				
516.78	-0.274940836711327				
517.363	1.37413720477466				
517.946	-0.824438968952431				
518.53	7.88007405523823				
519.114	-3.94065057162379				
519.697	-1.0076346844119				
520.281	-2.37996660635707				
520.864	-7.13257744872422				
521.448	1.18932674886887				
522.032	4.57808975877167				
522.616	3.84153167716747				
523.2	-6.57978922146037				
523.783	-5.57179486830377				
524.367	8.12107389979773				
524.951	2.27817290290912				
525.535	3.91212285969001				
526.119	-2.27272118365571				
526.703	4.28389203775905				
527.287	0.547939473828331				
527.872	3.84034262036194				
528.456	-3.10871915071004				
529.04	2.01070336538611				
529.624	1.55294657951371				
530.209	0.63961402767305				
530.793	-1.46435013018762				
531.377	3.66101336013184				
531.962	-3.29216541143648				
532.546	-3.20701626606032				
533.131	2.75429050549958				
533.715	-1.37894129984151				
534.3	8.09973783663696				
534.884	5.89752364788538				
535.469	-0.0921993836796379				
536.054	0.461249382815452				
536.638	-0.184870547385496				
537.223	-0.278056933787181				
537.808	2.13994238542867				
538.393	6.06519158784389				
538.978	-2.43199985952619				
539.563	1.123470117126				
540.148	-2.81030056960008				
540.733	-6.46248679815264				
541.318	3.83654617041053				
541.903	-3.73730843301515				
542.488	0.655457426834389				
543.073	-3.66244848212911				
543.658	0.565060930090713				
544.243	1.69750981176098				
544.829	-2.63872532700024				
545.414	-2.4525491487165				
545.999	-0.56688731519193				
546.585	-1.8926807901657				
547.17	-2.55886348759166				
547.755	2.27706063626627				
548.341	-3.89598817586659				
548.926	-2.95120801282876				
549.512	-3.81347942375161				
550.097	-0.19089202802661				
550.683	-0.763565643887486				
551.269	-0.190990993267032				
551.854	-0.286812424372045				
552.44	-1.62608922394758				
553.026	-3.9225990389197				
553.612	3.91709869757181				
554.198	4.29518834425222				
554.783	-0.286332268029849				
555.369	4.3975290170488				
555.955	2.49200325435936				
556.541	7.18495174793893				
557.127	0.861965869981403				
557.713	-1.43872667915719				
558.3	-2.97770883961081				
558.886	3.36677610096996				
559.472	-6.24489751903581				
560.058	2.01416181074747				
560.644	-4.12403773045601				
561.231	2.01556079603076				
561.817	0.961668940971079				
562.403	-3.94539365768764				
562.99	0.577405876114408				
563.576	5.48584794525022				
564.162	-2.40696302057129				
564.749	-4.62646228697682				
565.336	3.18363544089995				
565.922	0.86895167980133				
566.509	-3.5734601291218				
567.095	0.19326026675775				
567.682	-1.93645527326358				
568.269	0.581761612630032				
568.855	4.94865668813789				
569.442	-0.873501011042258				
570.029	2.71806992567464				
570.616	0.681153762131452				
571.203	-0.779936384037697				
571.79	5.17189871285206				
572.377	-4.4933308754669				
572.964	-4.20467796177856				
573.551	2.15429293644424				
574.138	1.27467358591692				
574.725	1.76654672613574				
575.312	3.8316876260799				
575.899	2.16415137012804				
576.486	1.18156338754342				
577.073	-0.19710829376927				
577.661	-2.36806214050762				
578.248	7.20906634670085				
578.835	1.48197941871287				
579.423	-1.58343934902891				
580.01	-7.14069348336171				
580.598	0.397042855819018				
581.185	2.68228654102098				
581.773	0.994250560191008				
582.36	-0.795851520262203				
582.948	-0.298567168577275				
583.535	2.08860902722574				
584.123	-1.29243192796258				
584.711	2.885855616082				
585.298	-9.1621639983717				
585.886	-2.09260944252195				
586.474	-0.996871235587911				
587.062	3.39057667175718				
587.649	-4.58949149155174				
588.237	0.798977665087386				
588.825	-3.1015396952814				
589.413	2.80411106671304				
590.001	-2.70566630937406				
590.589	3.30726377568784				
591.177	2.40501396681539				
591.765	-4.70695167502924				
592.353	-0.100188679456826				
592.942	-1.70505566261564				
593.53	2.60911611176643				
594.118	8.73380200922763				
594.706	-14.1549233758126				
595.294	5.42495955392391				
595.883	1.00606833796787				
596.471	1.30903126394004				
597.06	-3.42593032357335				
597.648	-5.1396495182688				
598.236	-1.61381737584649				
598.825	-4.14331619106335				
599.413	2.22473431395766				
600.002	-1.21367419972097				
600.59	-1.82228540478275				
601.179	4.86514895792634				
601.768	-1.01523332180966				
602.356	4.87427597442332				
602.945	2.84141319203421				
603.534	-1.72569306585379				
604.123	1.21933627814386				
604.711	-3.7713346070584				
605.3	-1.63474126549735				
605.889	0.818748987722535				
606.478	-1.43310056124156				
607.067	-0.307071357785722				
607.656	-1.12647409995667				
608.245	4.91904951452442				
608.834	3.69313704255085				
609.423	-2.87454719628902				
610.012	-8.42348831133026				
610.601	3.49520366969288				
611.19	-1.74923158048045				
611.779	-2.06072837436867				
612.369	-0.928897523113244				
612.958	-5.06685126481924				
613.547	-5.90208713988888				
614.136	-4.25107097026251				
614.726	-0.31150409620082				
615.315	1.97600716681416				
615.905	1.97942349244906				
616.494	1.1463306717645				
617.083	6.35744392275666				
617.673	-12.4070506497237				
618.262	3.96497818090175				
618.852	-2.40286618890958				
619.442	1.46447255960875				
620.031	-3.5611036326323				
620.621	-1.36334029426715				
621.211	-2.93945542250666				
621.8	9.97902630050241				
622.39	2.10113090280926				
622.98	-2.10092418131945				
623.57	-1.57821637263134				
624.159	-8.42935587492558				
624.749	1.05461050303305				
625.339	-2.64116921044841				
625.929	0.317700961174886				
626.519	9.54191630076191				
627.109	-3.39599131370933				
627.699	7.64861903033354				
628.289	-1.38219314291374				
628.879	4.14957351846838				
629.469	3.94168170196285				
630.059	-1.28013852756201				
630.649	-2.99089602194279				
631.24	5.34748098200764				
631.83	-2.89088621462521				
632.42	-0.321451157810737				
633.01	-2.57314917513508				
633.601	-6.00667570076783				
634.191	-2.25339577512164				
634.781	-4.50814271516847				
635.372	-3.97045680442623				
635.962	0.750734195056198				
636.553	-0.107333613549866				
637.143	-2.47081855819758				
637.734	3.33287887880767				
638.324	-7.09966497890749				
638.915	-2.47496704569866				
639.505	11.5084028391522				
640.096	2.68837353007636				
640.687	-0.646539253356241				
641.277	-3.99393145674917				
641.868	-1.62140769951351				
642.459	0.216470259943359				
643.05	1.08372729221272				
643.64	1.73594578893905				
644.231	-7.06300925117871				
644.822	6.75121776563095				
645.413	1.30901030871388				
646.004	4.9167817614218				
646.595	-2.95199119667413				
647.186	-1.86025119932716				
647.777	3.3966305101785				
648.368	-2.08465153412266				
648.959	6.37262687957073				
649.55	-0.110198619449072				
650.141	1.98923828829414				
650.732	0.775261106815803				
651.323	-5.54839480456142				
651.915	-4.55781642595631				
652.506	-0.667623965641357				
653.097	1.78211309720307				
653.688	2.0089659651931				
654.28	-1.45337859740093				
654.871	8.39583361628613				
655.462	-1.79545092485921				
656.054	1.3499861909261				
656.645	1.80076041098268				
657.237	2.92799668369892				
657.828	2.93049236641449				
658.42	4.06160446453297				
659.011	3.27530930460023				
659.603	2.26368394336678				
660.194	5.44421762859295				
660.786	-1.36377820402253				
661.377	-1.70883189389352				
661.969	0.114223451554778				
662.561	0.800156153021732				
663.152	-0.91513976252463				
663.744	1.03060543933383				
664.336	3.43633151150302				
664.928	8.01577620033435				
665.52	2.52250702394696				
666.111	8.26706165696953				
666.703	7.47033623963321				
667.295	-2.30125901870435				
667.887	2.30449170890325				
668.479	8.18666350830338				
669.071	0.115372237165574				
669.663	8.89205949929795				
670.255	4.50842907983294				
670.847	4.74509159250418				
671.439	-4.74717732586339				
672.031	15.865868645927				
672.624	10.3128616558933				
673.216	-0.579763919413749				
673.808	9.05208703118291				
674.4	8.48567532441625				
674.992	4.30957919137773				
675.585	2.09756103003532				
676.177	8.1665229750616				
676.769	16.8458989776935				
677.362	7.37750824698679				
677.954	9.13312928579438				
678.546	8.08695396637418				
679.139	5.04378921612047				
679.731	2.34614161760895				
680.324	10.6806794236854				
680.916	2.70197647859939				
681.509	4.11981179628419				
682.101	4.36450437855386				
682.694	-6.028471552641				
683.286	5.91269292423821				
683.879	-2.1256480468736				
684.472	9.22197306340453				
685.064	8.40957690055352				
685.657	2.01701558351433				
686.25	17.9403550528796				
686.842	6.18364848234642				
687.435	9.05078608543055				
688.028	17.4156618378238				
688.621	19.3521868139011				
689.214	7.29499461120251				
689.806	19.2637236226513				
690.399	22.5278828864239				
690.992	35.1791485199938				
691.585	37.5878435876061				
692.178	59.7039741449049				
692.771	65.9969026940599				
693.364	82.3864599320383				
693.957	82.8537559936517				
694.55	93.132062841665				
695.143	114.427232931571				
695.736	124.039521721829				
696.329	128.386176374105				
696.923	152.17868723546				
697.516	155.845685227237				
698.109	165.594342916511				
698.702	180.796887829151				
699.295	196.696400653108				
699.889	201.983707345637				
700.482	210.202439730241				
701.075	209.74220936123				
701.669	204.031806464219				
702.262	211.499162922401				
702.855	220.674931901235				
703.449	209.861090376211				
704.042	197.910492204014				
704.636	194.713172783612				
705.229	181.512922751045				
705.823	164.213330718278				
706.416	150.168530291101				
707.01	136.720951315683				
707.603	112.700527959193				
708.197	115.334900333981				
708.79	100.801037369248				
709.384	96.8407372300181				
709.978	73.8259707936277				
710.571	68.8042662159831				
711.165	53.0396569775294				
711.759	55.4883862046918				
712.353	37.7637820492321				
712.946	25.4334839987711				
713.54	19.9989803771663				
714.134	17.5965697949338				
714.728	-7.59601329350586				
715.322	-1.14208113953732				
715.915	8.4110992635049				
716.509	12.1095078887104				
717.103	-0.25491788201705				
717.697	8.0440416215106				
718.291	-0.767837728639972				
718.885	0.51332362053208				
719.479	0.642299975842742				
720.073	-1.9284837574333				
720.667	-7.604839775464				
721.261	6.19943047184037				
721.855	-2.45715012581884				
722.449	1.94272676965982				
723.044	0.648536487687739				
723.638	9.21675046243345				
724.232	8.84020528739256				
724.826	5.86453530467349				
725.42	7.57334613107806				
726.015	14.5178315854216				
726.609	8.23457547047392				
727.203	-0.13070556562715				
727.797	4.44927527283117				
728.392	5.63438145386809				
728.986	2.88663908410849				
729.58	13.9355697931573				
730.175	0.79046814837248				
730.769	-1.58477173209997				
731.364	1.98358283405544				
731.958	3.1757004922291				
732.552	-3.30847883309141				
733.147	5.16321893452872				
733.741	2.65111235526719				
734.336	-8.77083164618556				
734.93	-1.06685997048471				
735.525	4.14466929697998				
736.12	-0.268014352258208				
736.714	-1.74523843363118				
737.309	-4.29972715220644				
737.903	-0.40310447479074				
738.498	-6.71206913464184				
739.093	3.2206888623527				
739.687	-5.6582181624053				
740.282	0				
740.877	14.7424362823455				
741.472	-5.02476586884829				
742.066	-2.31884664434988				
742.661	-2.32192350610578				
743.256	3.28200045003656				
743.851	-0.136896824221069				
744.446	3.70178633665133				
745.041	5.76713090017247				
745.635	-6.72743972341341				
746.23	-0.549619591259928				
746.825	-4.68243044874325				
747.42	-5.79516917965584				
748.015	3.17905658304118				
748.61	-0.276888855356704				
749.205	-0.554786106248731				
749.8	-5.97704238055524				
750.395	4.59494675249249				
750.99	-4.74122893050895				
751.585	4.463725775692				
752.18	9.07821420204041				
752.776	6.58681223741203				
753.371	-0.845615110927098				
753.966	-5.81851104702824				
754.561	-3.5528159715952				
755.156	3.13041263825978				
755.751	-0.285100846082225				
756.347	-9.72145647192208				
756.942	2.43922011308836				
757.537	-1.58501315174352				
758.132	-4.62986324853975				
758.728	6.38795475230679				
759.323	3.48615013707493				
759.918	6.668940811287				
760.514	-6.8482741730663				
761.109	5.8606632093342				
761.704	-1.76350875823236				
762.3	-0.441870728123185				
762.895	0.737552494562291				
763.491	2.0684024681588				
764.086	-0.74002667873206				
764.681	12.4682110761416				
765.277	0.446434050042613				
765.872	-5.81637669492036				
766.468	-4.17499315886775				
767.063	4.46993204863636				
767.659	-2.38485436267251				
768.255	-1.49155474251253				
768.85	-9.4071185840503				
769.446	-6.40975051659461				
770.041	-1.78451701502021				
770.637	-3.12727562018009				
771.233	-3.43723786321584				
771.828	-2.55795236012448				
772.424	-6.34346860291983				
773.02	-11.9606599073466				
773.615	-4.08532040101134				
774.211	3.3329932614831				
774.807	-4.71850805826573				
775.402	1.83632531175712				
775.998	-4.61692950743022				
776.594	-2.93680345602141				
777.19	-12.2415983641169				
777.786	4.17805596376786				
778.381	-2.63149842513692				
778.977	6.81975389585917				
779.573	-0.776629323983832				
780.169	8.40286318123478				
780.765	-3.27085153559877				
781.361	2.03038828053771				
781.957	0.627186282302196				
782.553	9.57590977266182				
783.149	2.67455014448832				
783.745	2.37370339139691				
784.341	4.7328911179539				
784.937	16.0915940517748				
785.533	3.45433878669815				
786.129	12.1722297413115				
786.725	-9.86818152333137				
787.321	-5.74512952328291				
787.917	19.4521326571057				
788.513	16.1258096685268				
789.109	6.08753772695775				
789.705	6.63790109625142				
790.301	15.7263982933706				
790.897	17.3784001994932				
791.494	21.4734526693534				
792.09	16.6374768227994				
792.686	11.4467879006619				
793.282	21.2456737103528				
793.878	5.86145081534009				
794.475	18.2633157513285				
795.071	10.2892673290119				
795.667	7.3975707047843				
796.263	27.1765298116584				
796.86	12.6332025574144				
797.456	9.16744063215575				
798.052	19.2978811741991				
798.649	18.7638188046568				
799.245	18.2187456830405				
799.841	23.8272196467434				
800.438	14.2470282963465				
801.034	10.4003306563329				
801.63	14.104558013383				
802.227	1.13976226370772				
802.823	13.2497363156022				
803.42	15.3867905600542				
804.016	-0.284940565926929				
804.613	11.6825632030041				
805.209	16.3840825407984				
805.806	-0.284940565926929				
806.402	10.2578603733695				
806.999	8.40574669484442				
807.595	13.8196174474561				
808.192	6.69610329928284				
808.788	-4.4165787718674				
809.385	3.56175707408662				
809.981	6.55363301631937				
810.578	8.26327641188095				
811.174	-0.284940565926929				
811.771	2.99187594223276				
812.368	-0.284940565926929				
812.964	15.956671691908				
813.561	2.13705424445197				
814.158	-3.41928679112315				
814.754	4.4165787718674				
815.351	5.27140046964819				
815.948	-6.69610329928284				
816.544	-3.13434622519622				
817.141	5.84128160150205				
817.738	-5.41387075261166				
818.335	7.69339528002709				
818.931	10.115390090406				
819.528	2.27952452741543				
820.125	-0.427410848890394				
820.722	5.84128160150205				
821.318	10.2578603733695				
821.915	5.41387075261166				
822.512	-0.569881131853859				
823.109	5.55634103557512				
823.706	3.84669764001355				
824.303	6.41116273335591				
824.899	3.27681650815969				
825.496	-0.142470282963465				
826.093	7.55092499706363				
826.69	-7.69339528002709				
827.287	-5.84128160150205				
827.884	-6.69610329928284				
828.481	-7.2659844311367				
829.078	-12.6798551837484				
829.675	7.97833584595402				
