Wavelength, nm	Sc/Rc	Wavelength	Signal	Baseline_Result	Baseline_Y
Raw CCD	counts/uA	nm	Sc/Rc		
	Fully Corrected Emission Spectrum		Water Raman		Baseline of "Signal"
247.749	-3.08890581912174	365	147.164619631719	365	155.703886859276
248.309	-0.386113227390217	365.5	135.921256935655	365.5	154.806826465573
248.868	10.9398747760562	366	129.434801920178	366	153.90976607187
249.428	-0.772226454780435	366.5	138.025732101847	366.5	153.012705678167
249.988	7.4648557295442	367	143.601602985476	367	152.115645284465
250.549	6.23192312354383	367.5	132.943690442451	367.5	151.218584890762
251.109	3.69213134953032	368	129.105308677515	368	150.321524497059
251.669	3.66967722840924	368.5	142.702713619015	368.5	149.424464103356
252.229	4.13574363438693	369	145.732860406874	369	148.527403709654
252.79	-11.764209410583	369.5	133.793984278297	369.5	147.630343315951
253.35	2.24628985229655	370	141.507649569779	370	146.733282922248
253.911	2.24172342725337	370.5	142.165684013785	370.5	145.836222528546
254.471	7.84359180210011	371	144.939162134843	371	144.939162134843
255.032	11.2085115680972	371.5	145.239559097896	371.5	144.04210174114
255.592	-0.901199326881339	372	143.468741575847	372	143.145041347437
256.153	-3.28045305944301	372.5	144.074541624003	372.5	142.247980953735
256.714	0.339991449744473	373	140.686714748389	373	141.350920560032
257.275	10.4753507873795	373.5	134.420874596042	373.5	140.453860166329
257.835	3.67124572014988	374	135.48033194119	374	139.556799772626
258.396	-5.08635480904486	374.5	123.013108820085	374.5	138.659739378924
258.957	3.02833615861494	375	127.148800893602	375	137.762678985221
259.518	7.70126787965465	375.5	126.357458370455	375.5	136.865618591518
260.08	-0.819262017578144	376	119.522975867178	376	135.968558197816
260.641	-5.33524958964003	376.5	120.016054483864	376.5	135.071497804113
261.202	-1.31831816934814	377	117.594056461587	377	134.17443741041
261.763	1.56923939837248	377.5	109.027158813194	377.5	133.277377016707
262.325	3.89930072477134	378	114.246160483255	378	132.380316623005
262.886	-1.72473521643291	378.5	116.868350722154	378.5	131.483256229302
263.447	4.55677276158091	379	110.670054722097	379	130.586195835599
264.009	10.0685530028487	379.5	104.988875739789	379.5	129.689135441896
264.571	2.72512106282667	380	100.696092832365	380	128.792075048194
265.132	4.61954490597105	380.5	100.725867091043	380.5	127.895014654491
265.694	2.38494413639089	381	99.1958151378254	381	126.997954260788
266.256	5.81410929672542	381.5	87.5689269157715	381.5	126.100893867085
266.817	15.4275568869775	382	90.3586701715834	382	125.203833473383
267.379	15.0257347622813	382.5	105.150525201993	382.5	124.30677307968
267.941	12.1505133470524	383	97.2845019922836	383	123.409712685977
268.503	4.01490044399143	383.5	99.6819277877172	383.5	122.512652292275
269.065	1.16882945664178	384	101.109348872113	384	121.615591898572
269.627	1.84173221838856	384.5	103.979671481822	384.5	120.718531504869
270.19	-0.265452658183364	385	126.950638239082	385	119.821471111166
270.752	9.03694418746173	385.5	145.277790749908	385.5	118.924410717464
271.314	4.53915244311924	386	169.6747210299	386	118.027350323761
271.876	5.1094393915097	386.5	202.468898914737	386.5	117.130289930058
272.439	8.65212496314832	387	246.962699175919	387	116.233229536355
273.001	-8.15129906764974	387.5	295.922631707183	387.5	115.336169142653
273.564	12.5561236634849	388	354.434304133574	388	114.43910874895
274.126	4.79345196803784	388.5	427.465130225143	388.5	113.542048355247
274.689	4.79227046588009	389	511.255071088351	389	112.644987961545
275.252	8.90558745833039	389.5	606.892405969053	389.5	111.747927567842
275.814	19.2142584157507	390	714.217454381574	390	110.850867174139
276.377	-3.15827945914805	390.5	835.128770266439	390.5	109.953806780436
276.94	11.1218863035247	391	962.765108863583	391	109.056746386734
277.503	9.80645521662034	391.5	1096.28315576484	391.5	108.159685993031
278.066	10.6940380809102	392	1216.48620249129	392	107.262625599328
278.629	10.6686735756573	392.5	1352.69074038608	392.5	106.365565205625
279.192	4.69375600613323	393	1508.90006924217	393	105.468504811923
279.755	12.8981652419446	393.5	1614.55043818349	393.5	104.57144441822
280.319	19.8494694843671	394	1745.4970463118	394	103.674384024517
280.882	14.6555954292458	394.5	1850.5306616687	394.5	102.777323630815
281.445	11.8672790119076	395	1925.2015223893	395	101.880263237112
282.008	13.9760032944184	395.5	1990.24019039458	395.5	100.983202843409
282.572	23.4027277985752	396	2040.01746259	396	100.086142449706
283.135	13.8940154817779	396.5	2071.46284544336	396.5	99.1890820560036
283.699	24.5570632662385	397	2087.46907737264	397	98.2920216623009
284.263	20.2443118839778	397.5	2070.17355763894	397.5	97.3949612685982
284.826	22.7894948470466	398	2026.56236773319	398	96.4979008748955
285.39	20.4537467666543	398.5	1942.26056889629	398.5	95.6008404811927
285.954	32.5868819200035	399	1868.35411513671	399	94.70378008749
286.518	12.9947879369679	399.5	1771.53316660921	399.5	93.8067196937873
287.081	11.7215683942116	400	1647.54329594637	400	92.9096593000845
287.645	15.2612553784014	400.5	1536.50805713817	400.5	92.0125989063818
288.209	26.4414338711112	401	1414.51339548766	401	91.1155385126791
288.773	20.5534059329967	401.5	1274.67039106952	401.5	90.2184781189764
289.338	18.9986771126333	402	1155.24450956574	402	89.3214177252736
289.902	10.7630580864321	402.5	1019.98084078569	402.5	88.4243573315709
290.466	12.2829079839667	403	885.509135922011	403	87.5272969378682
291.03	24.5272874625041	403.5	771.867341092135	403.5	86.6302365441654
291.595	30.8269857460554	404	664.780229011442	404	85.7331761504627
292.159	28.8873865864941	404.5	554.732055703279	404.5	84.83611575676
292.724	17.4320369726804	405	457.91498389791	405	83.9390553630573
293.288	25.6565099028197	405.5	387.806730244905	405.5	83.0419949693545
293.853	20.8474729841945	406	329.169823737701	406	82.1449345756518
294.417	24.8231639075595	406.5	261.80962735934	406.5	81.2478741819491
294.982	19.2741116696216	407	205.067749741495	407	80.3508137882463
295.547	12.873031812353	407.5	169.886554852746	407.5	79.4537533945436
296.111	19.7239562028468	408	140.029110191335	408	78.5566930008409
296.676	19.869037456567	408.5	116.596569881673	408.5	77.6596326071382
297.241	20.3460333062531	409	108.763954933962	409	76.7625722134354
297.806	22.5558120418638	409.5	78.9036491792434	409.5	75.8655118197327
298.371	17.9603605052961	410	74.9969368658351	410	74.96845142603
298.936	32.2163023339387	410.5	62.5450336463785	410.5	74.0713910323273
299.501	27.0043279429323	411	50.4902362255453	411	73.1743306386245
300.067	22.3080321893215	411.5	43.9826707730384	411.5	72.2772702449218
300.632	17.1538169555513	412	38.0841166187938	412	71.3802098512191
301.197	11.6004792734544	412.5	46.6279893889641	412.5	70.4831494575163
301.763	33.11705810576	413	36.0596655326222	413	69.5860890638136
302.328	25.2857003281512	413.5	26.8436499851074	413.5	68.6890286701109
302.893	14.92437906802	414	24.337135887663	414	67.7919682764081
303.459	18.4055099389643	414.5	24.4666066194995	414.5	66.8949078827054
304.025	36.1082746351011	415	25.3708626660297	415	65.9978474890027
304.59	15.655075522285	415.5	20.2595599494988	415.5	65.1007870953
305.156	29.0567674442746	416	12.8802793196769	416	64.2037267015972
305.722	34.4243935348591	416.5	15.3089141394321	416.5	63.3066663078945
306.287	41.177688403682	417	8.8096069338879	417	62.4096059141918
306.853	38.7241512744406	417.5	7.97954859563594	417.5	61.5125455204891
307.419	55.5138540034889	418	14.6227128329707	418	60.6154851267863
307.985	56.1576375075873	418.5	13.3713801471378	418.5	59.7184247330836
308.551	63.9687519854986	419	5.83364062617884	419	58.8213643393809
309.117	76.8139621827594	419.5	7.74793173171022	419.5	57.9243039456781
309.683	76.0956235670662	420	13.8279261553523	420	57.0272435519754
310.25	81.4926377351272	420.5	8.6123039622527	420.5	56.1301831582727
310.816	92.7408920349878	421	14.3009620511095	421	55.23312276457
311.382	106.011778521977	421.5	8.62579708366738	421.5	54.3360623708672
311.949	122.126244007816	422	8.52288786160564	422	53.4390019771645
312.515	118.037675467746	422.5	10.5730899700396	422.5	52.5419415834618
313.081	141.035848264955	423	8.17449952356884	423	51.644881189759
313.648	151.389710117479	423.5	12.7197529812228	423.5	50.7478207960563
314.215	167.768662575953	424	16.5026226986355	424	49.8507604023536
314.781	184.863546038561	424.5	6.98646063128966	424.5	48.9537000086509
315.348	187.507142197028	425	7.85013602226986	425	48.0566396149481
315.915	213.774544562808	425.5	8.14638990128869	425.5	47.1595792212454
316.481	223.330749815131	426	3.62906730090305	426	46.2625188275427
317.048	240.829753466895	426.5	4.49063109758424	426.5	45.3654584338399
317.615	257.719344202422	427	7.05441805444752	427	44.4683980401372
318.182	270.093854505676	427.5	5.86360565858333	427.5	43.5713376464345
318.749	287.177649552718	428	11.1992573689295	428	42.6742772527318
319.316	302.910668300333	428.5	5.65972891736986	428.5	41.777216859029
319.883	318.621116447307	429	-2.26142226950262	429	40.8801564653263
320.451	310.37328198282	429.5	-0.133193353513918	429.5	39.9830960716236
321.018	328.246085451152	430	7.04240705634203	430	39.0860356779208
321.585	335.217697022895	430.5	5.02660335653536	430.5	38.1889752842181
322.153	342.607675657167	431	1.21735554888814	431	37.2919148905154
322.72	347.833877921417	431.5	6.60560025837862	431.5	36.3948544968127
323.287	340.691550548837	432	-1.61028088039641	432	35.4977941031099
323.855	359.154534979083	432.5	6.14262114999438	432.5	34.6007337094072
324.423	352.600754917381	433	5.34322430148914	433	33.7036733157045
324.99	350.762418664738	433.5	2.21192215462074	433.5	32.8066129220017
325.558	352.01465261711	434	9.22103672860302	434	31.909552528299
326.126	353.651393126151	434.5	9.36866749148083	434.5	31.0124921345963
326.693	367.766362160828	435	-1.08840651838254	435	30.1154317408936
327.261	352.02473295504	435.5	2.92318393500454	435.5	29.2183713471909
327.829	340.632754065723	436	5.31217421183807	436	28.3213109534881
328.397	361.78260324584	436.5	4.85609475536475	436.5	27.4242505597854
328.965	351.395122869633	437	1.70754509550188	437	26.5271901660826
329.533	337.149305516861	437.5	3.53408300304859	437.5	25.6301297723799
330.101	337.995614113855	438	2.72114959150445	438	24.7330693786772
330.669	335.134681923237	438.5	-1.12070009650807	438.5	23.8360089849745
331.238	322.996504727825	439	8.34524044997802	439	22.9389485912717
331.806	324.037561332929	439.5	7.34255392031766	439.5	22.041888197569
332.374	323.221580224166	440	6.59001993542529	440	21.1448278038663
332.943	311.79616115441	440.5	2.68421566322568	440.5	20.2477674101635
333.511	307.635609654364	441	-0.965763228147553	441	19.3507070164608
334.08	291.51725683166	441.5	-1.39936845116849	441.5	18.4536466227581
334.648	285.140083405981	442	0.731460248446601	442	17.5565862290554
335.217	269.281244061509	442.5	3.40446113298934	442.5	16.6595258353526
335.785	263.629680451919	443	1.26639446264323	443	15.7624654416499
336.354	241.643567002402	443.5	3.96229256083263	443.5	14.8654050479472
336.923	247.625567452433	444	2.45745680872584	444	13.9683446542444
337.492	243.1044934909	444.5	0.927711686867401	444.5	13.0712842605417
338.061	239.239888694219	445	2.95860906898108	445	12.174223866839
338.629	229.09357748202	445.5	5.34933877395146	445.5	11.2771634731363
339.198	255.063288018536	446	6.18028346561081	446	10.3801030794335
339.767	280.360778605623	446.5	7.07556176902048	446.5	9.48304268573082
340.337	316.23209326562	447	9.8876965600755	447	8.58598229202809
340.906	386.701744607006	447.5	7.11766521733618	447.5	7.68892189832536
341.475	533.152708399261	448	6.79186150462264	448	6.79186150462263
342.044	758.65121871465	448.5	5.01628622091888	448.5	5.89480111091991
342.613	1151.08084161347	449	8.05111290964526	449	4.99774071721718
343.183	1724.07830897199	449.5	9.45289565317083	449.5	4.10068032351446
343.752	2489.69626473602	450	-2.49095350700071	450	3.20361992981173
344.322	3503.50505171322				
344.891	4745.2211567075				
345.461	6179.61521186941				
346.03	7806.70890965874				
346.6	7806.43768471719				
347.17	7806.94539092928				
347.739	7762.99153442528				
348.309	7815.22680386897				
348.879	7799.07807870639				
349.449	7750.78280191954				
350.019	7873.0455871148				
350.589	7785.25019935529				
351.159	7839.6703665158				
351.729	7835.71147307257				
352.299	7862.86567523934				
352.87	7946.53514518009				
353.44	7884.15026902899				
354.01	7351.56041503949				
354.581	5719.13998079697				
355.151	4298.26077119204				
355.722	3075.08608749553				
356.292	2086.76803209262				
356.863	1375.49873070513				
357.434	870.135021167281				
358.004	572.262524150651				
358.575	394.172830623147				
359.146	287.061996958155				
359.717	237.515788934326				
360.288	198.129852893036				
360.859	190.377239145045				
361.43	178.120255528182				
362.001	181.361601206736				
362.572	158.124914772757				
363.143	157.999287505338				
363.714	157.56549887661				
364.286	151.281184122742				
364.857	149.152764433803				
365.428	137.636807017731				
366	129.434801920178				
366.571	139.512903482481				
367.143	142.145662585479				
367.714	128.455621710311				
368.286	135.847694148401				
368.858	148.237683924963				
369.43	134.127846769938				
370.001	141.520416270147				
370.573	142.175504486565				
371.145	145.740533213702				
371.717	144.232386289759				
372.289	143.585003467802				
372.861	142.762777672217				
373.433	134.461324865509				
374.005	135.413178454513				
374.578	122.090995924513				
375.15	129.015824856606				
375.722	122.601084814855				
376.295	118.983972004591				
376.867	119.760373240459				
377.439	109.302823989098				
378.012	114.404913749475				
378.584	116.362596072865				
379.157	108.356181257438				
379.73	103.145109843014				
380.302	99.5914927892129				
380.875	101.214486629458				
381.448	88.3857031832601				
382.021	90.9165279881347				
382.594	105.805326247325				
383.167	94.7381935637615				
383.74	103.516861052125				
384.313	99.0799886399351				
384.886	122.099959268787				
385.459	143.65326125193				
386.032	171.50108843907				
386.606	210.924357448473				
387.179	264.394171518337				
387.752	323.267642311965				
388.326	400.854490642591				
388.899	493.363768284021				
389.473	601.446384995636				
390.046	724.803833719357				
390.62	865.392032012382				
391.194	1014.004494432				
391.767	1163.69397055406				
392.341	1302.20417111778				
392.915	1487.04736352558				
393.489	1612.01805658317				
394.063	1761.29947973541				
394.637	1872.92792625112				
395.211	1953.14409866515				
395.785	2021.81624849642				
396.359	2063.28808370017				
396.933	2087.27938455685				
397.507	2069.76032232294				
398.082	2015.27634672848				
398.656	1915.86355368669				
399.23	1831.69291762665				
399.805	1694.05161893735				
400.379	1563.29950353374				
400.954	1426.94239225907				
401.528	1267.39130104978				
402.103	1129.79515083258				
402.677	969.970021740005				
403.252	825.967035149147				
403.827	702.543271183818				
404.402	575.898882727965				
404.977	461.772942049131				
405.551	381.687478668733				
406.126	313.28160665281				
406.701	235.859383308245				
407.276	183.78905895074				
407.852	149.423142551342				
408.427	118.223303075009				
409.002	108.683111715696				
409.577	75.8751084394588				
410.152	74.515793654627				
410.728	54.0073869565878				
411.303	48.4189801296696				
411.879	37.0368064158489				
412.454	46.5849732236684				
413.03	35.2625101466931				
413.605	25.8770486175596				
414.181	24.2779877967519				
414.756	24.9145029422412				
415.332	23.3693742555479				
415.908	13.1020808895299				
416.484	15.3566677743158				
417.06	8.10572853479233				
417.635	9.43297316031961				
418.211	15.9440558264801				
418.787	8.5912129468616				
419.363	5.74168997414621				
419.94	13.9584996212011				
420.516	8.61533294759302				
421.092	14.5972145664498				
421.668	6.5547542571962				
422.244	10.9571245089012				
422.821	8.43342070190459				
423.397	11.1939520485595				
423.974	16.7246733615619				
424.55	6.38467300295109				
425.127	8.73836984053457				
425.703	6.43120450030397				
426.28	2.8280827209835				
426.856	7.33730617078418				
427.433	5.44046823754505				
428.01	11.2213671296004				
428.587	4.00540662145655				
429.164	-2.97127389924885				
429.741	3.61612402937307				
430.317	7.50665258453382				
430.894	0.463487175277441				
431.472	6.75336432745899				
432.049	-1.75363074505566				
432.626	7.93424284759398				
433.203	2.67512832944335				
433.78	5.35217135437944				
434.357	11.6446571722795				
434.935	-0.555736445640069				
435.512	3.05153749754379				
436.09	5.35314101228284				
436.667	4.05858965859714				
437.244	1.38187876183363				
437.822	4.87212204980454				
438.4	-1.92973223793567				
438.977	8.08983364269303				
439.555	7.06961351859687				
440.133	6.143867779189				
440.711	0.549706663401136				
441.288	-1.37106732054422				
441.866	-0.273175362454704				
442.444	3.45462352351743				
443.022	1.27154208641131				
443.6	4.26541256254666				
444.178	1.36021256065635				
444.756	1.72148584905182				
445.334	4.70532818702829				
445.913	6.14307570488575				
446.491	7.02917640905785				
447.069	9.88666815090852				
447.647	6.36234682726343				
448.226	6.78678901192401				
448.804	4.97976474924543				
449.383	11.6208365562584				
449.961	-2.39153356640296				
450.54	7.25300194641841				
451.118	4.15158740868662				
451.697	5.99935534573527				
452.276	3.78669470682162				
452.854	5.09454552356379				
453.433	0				
454.012	3.68375084458005				
454.591	0.963782997901101				
455.17	8.92953266450715				
455.749	-3.23821039930076				
456.328	1.39944133600317				
456.907	0.349555471464439				
457.486	3.57985649791549				
458.065	9.8589824788251				
458.644	6.36956160047359				
459.224	7.31837628874007				
459.803	-0.433875190223892				
460.382	5.11207422312602				
460.961	0.866284383606684				
461.541	11.328087495762				
462.12	5.52554949172384				
462.7	5.00552973737232				
463.279	3.87837106949114				
463.859	6.10468668545398				
464.439	-6.43933326103711				
465.018	4.03079600917765				
465.598	5.48547073624539				
466.178	5.39421753657966				
466.758	-1.53812365805765				
467.337	1.19314171921653				
467.917	7.22132945396976				
468.497	5.7691317882838				
469.077	6.35603964548598				
469.657	4.31685105091283				
470.237	1.43791952624342				
470.817	5.15963973445323				
471.398	-2.61946352976089				
471.978	6.24367402833607				
472.558	1.18153051825837				
473.138	-5.57111295205932				
473.719	3.20686323266576				
474.299	0.252905186988236				
474.879	-1.09390765926106				
475.46	3.36523896362806				
476.04	-4.03866308359976				
476.621	-2.09925630577777				
477.201	-0.503044654461318				
477.782	0.418921768337855				
478.363	0.334871570831527				
478.943	0.920100804196606				
479.524	1.84017523903507				
480.105	-0.334625499393209				
480.686	1.17170628607058				
481.267	3.34963447059759				
481.848	-2.17882370933834				
482.429	-3.26888843491153				
483.01	-0.335286655487988				
483.591	1.25962627812828				
484.172	-1.68177131924726				
484.753	0.756963645532289				
485.334	6.22097199626399				
485.915	-1.09179365285448				
486.497	2.09846802635307				
487.078	0.335619787828943				
487.659	0.58732845119869				
488.241	-0.755043730616315				
488.822	-4.27737639356477				
489.404	4.53207200499649				
489.985	3.78089247328847				
490.567	2.77641513156167				
491.148	6.31518692139755				
491.73	6.64687053455644				
492.312	7.39958229355561				
492.893	4.95873949306692				
493.475	7.21737786557059				
494.057	-2.8494752259122				
494.639	4.95277170014761				
495.221	-2.35274148098997				
495.803	-0.168032442966721				
496.385	4.61768544703448				
496.967	-2.60012590692665				
497.549	-0.16780246811012				
498.131	1.34262152109268				
498.713	0.586999562235879				
499.295	3.76873252975454				
499.877	4.17964072226423				
500.46	-3.3475172950593				
501.042	-5.36559285609038				
501.624	3.85581562346346				
502.207	1.25658952092752				
502.789	-1.08759854966567				
503.372	2.42681962253289				
503.954	4.60795198918083				
504.537	-5.36023772723406				
505.119	8.20472389040475				
505.702	3.85076448140936				
506.284	-1.25535871956299				
506.867	1.17118288124406				
507.45	-4.76555619586516				
508.033	4.42844978568346				
508.616	1.6712727918843				
509.198	0.167054512614725				
509.781	3.08597186697443				
510.364	-0.833018876391783				
510.947	1.91385473086482				
511.53	-1.66417072286177				
512.113	3.66043033037021				
512.697	-1.08001221207812				
513.28	1.24494753608456				
513.863	0.912449636216652				
514.446	1.0777063127449				
515.029	3.23130886940311				
515.613	3.56399622689487				
516.196	3.3978837782736				
516.78	1.49025174367346				
517.363	3.47581992055615				
517.946	4.46867633680658				
518.53	-0.413876712051354				
519.114	-0.165576464433634				
519.697	2.97907928793089				
520.281	0.248077803786127				
520.864	2.89127283658651				
521.448	-0.826469769380778				
522.032	1.32343744975532				
522.616	4.2966265745893				
523.2	5.11847177615258				
523.783	0.495091730815792				
524.367	-4.6985889152379				
524.951	-0.658575846170535				
525.535	-1.72596690001388				
526.119	-0.739124841694424				
526.703	0				
527.287	3.46497229638704				
527.872	-3.96488921883726				
528.456	2.39535401400089				
529.04	-1.23847065696292				
529.624	0.577663295351686				
530.209	-4.62250197251739				
530.793	2.97643625938305				
531.377	3.22459419426825				
531.962	-2.47838938305736				
532.546	-0.827755845957559				
533.131	-1.99053065500711				
533.715	-1.32875111191513				
534.3	-0.831490761927225				
534.884	-0.0832451337222862				
535.469	1.24936235316747				
536.054	2.33342025463474				
536.638	0.91854313331418				
537.223	3.09801372154856				
537.808	3.19394166408775				
538.393	4.63620888656991				
538.978	0.676004088850545				
539.563	2.87559907005343				
540.148	0.507752307028181				
540.733	-3.63821342454651				
541.318	2.53598666345391				
541.903	3.71381926085275				
542.488	0.422946651830499				
543.073	-5.00527642665927				
543.658	1.78662111606548				
544.243	-1.70387967363945				
544.829	-1.10674774241913				
545.414	-5.02765561039005				
545.999	-0.9388739996654				
546.585	-2.3082363767326				
547.17	-1.96915692700983				
547.755	-1.28565295182975				
548.341	-0.600898267285389				
548.926	4.21408552941366				
549.512	-2.58375784981861				
550.097	-1.89692261994154				
550.683	-2.67292777879394				
551.269	-0.603879198468774				
551.854	-5.61382927194534				
552.44	0.259230348303113				
553.026	4.14858923914392				
553.612	0.776769751899935				
554.198	3.19036638669436				
554.783	-1.55199630147877				
555.369	7.08164044793239				
555.955	-0.606097420166379				
556.541	-7.44269431347059				
557.127	4.23948183614469				
557.713	1.73295055678929				
558.3	-1.4751581940482				
558.886	2.34627597576404				
559.472	-0.433961400201652				
560.058	-1.55961249513599				
560.644	2.07938331254306				
561.231	3.98844472533949				
561.817	1.65062465995462				
562.403	1.99941736509602				
562.99	1.99952538997163				
563.576	2.0866484646838				
564.162	-6.52318673586135				
564.749	4.26651235151351				
565.336	-0.0871522350259681				
565.922	-0.523327439168929				
566.509	2.79194162305297				
567.095	-1.22210846688839				
567.682	2.9738943109097				
568.269	-1.13869208331092				
568.855	0.0876569363822225				
569.442	9.81992257236707				
570.029	-0.0876943739929373				
570.616	-3.16459952579935				
571.203	5.10818156597333				
571.79	-1.58677659057494				
572.377	-3.17674391911496				
572.964	-4.15175081144057				
573.551	-1.6807565634377				
574.138	0.620044432628227				
574.725	-1.50719930016976				
575.312	1.33133051605762				
575.899	2.93256759479934				
576.486	-0.533698728184954				
577.073	-1.95869458192821				
577.661	5.52640464112323				
578.248	-0.535274495700758				
578.835	-9.90701978553579				
579.423	-2.23506726248236				
580.01	0.0895936093984038				
580.598	-2.42108644966756				
581.185	0.807705525669005				
581.773	4.04182491230464				
582.36	-2.24673168546147				
582.948	1.61831268464166				
583.535	-0.898477062361803				
584.123	3.86190796547354				
584.711	-0.269691335535022				
585.298	1.25952678549258				
585.886	-1.35029693931162				
586.474	2.43148708525851				
587.062	-1.98192160365733				
587.649	5.22761829524066				
588.237	1.80444556847633				
588.825	6.77869434397992				
589.413	-3.34740331892609				
590.001	4.07372887884314				
590.589	1.44858510453139				
591.177	3.8926374357196				
591.765	1.17612741198948				
592.353	6.33557199856464				
592.942	-1.35909569655415				
593.53	-1.08785357424953				
594.118	1.36033066186734				
594.706	0.906896129455133				
595.294	4.4470085362692				
595.883	0.545315535096539				
596.471	1.18254903305975				
597.06	0.182053378531941				
597.648	8.01152401818795				
598.236	0.0911178666007453				
598.825	2.64747188358624				
599.413	5.57255605519934				
600.002	-0.639569952482017				
600.59	1.82912348386259				
601.179	-3.84568167703603				
601.768	-0.641997063993524				
602.356	-2.38512620266256				
602.945	6.05047450004261				
603.534	3.30130972842582				
604.123	2.11124786559938				
604.711	4.51189059840418				
605.3	-5.16875810856771				
605.889	3.69819595001776				
606.478	-3.69894403083283				
607.067	6.10282797601896				
607.656	-3.60796462657595				
608.245	1.48125243636665				
608.834	1.76082283601866				
609.423	-1.02017161501857				
610.012	4.91839192782521				
610.601	4.17902743899808				
611.19	-2.97452418685808				
611.779	2.1408573467143				
612.369	4.56867761708866				
612.958	-2.52217361630358				
613.547	4.30286510871839				
614.136	-7.4933086911194				
614.726	1.31322663067842				
615.315	-0.187903144691011				
615.905	-0.94114005544349				
616.494	-1.03556902329565				
617.083	-1.50640526182431				
617.673	1.50699119450904				
618.262	6.31540412016815				
618.852	1.60442643918767				
619.442	0.661485579838372				
620.031	1.41927349593658				
620.621	1.61056767404383				
621.211	2.93994820456264				
621.8	-0.474464479256379				
622.39	0.949056904099606				
622.98	2.94178694410519				
623.57	5.13260902819745				
624.159	0.856674915109186				
624.749	2.09596444556862				
625.339	5.44001642662198				
625.929	6.21841595416804				
626.519	-1.05354943057019				
627.109	3.25960254129643				
627.699	-1.91933006909656				
628.289	-3.16962920593116				
628.879	3.6525114941361				
629.469	-1.732293479184				
630.059	-0.674594662580341				
630.649	-1.92993382432675				
631.24	-5.31387179409264				
631.83	-0.483622365123425				
632.42	4.64626648810048				
633.01	-1.35597254687348				
633.601	5.03870160584396				
634.191	-4.74988832801771				
634.781	-0.678758910701622				
635.372	-5.52564201793281				
635.962	-0.775081343109499				
636.553	-2.32710581171912				
637.143	-2.42617523599936				
637.734	5.34182510775683				
638.324	-3.30401473399606				
638.915	7.77679605653462				
639.505	3.59502686504067				
640.096	-0.874301552747871				
640.687	-4.76989550819014				
641.277	2.34034165853258				
641.868	-6.34721876168043				
642.459	-4.00886321396196				
643.05	4.20976259030805				
643.64	9.70332346138668				
644.231	5.39893683191645				
644.822	-4.13151045291973				
645.413	9.16460829503887				
646.004	2.56632056638589				
646.595	0.888920540298569				
647.186	-1.08738789801949				
647.777	-6.33484108567028				
648.368	3.86557063951522				
648.959	-5.16134606728632				
649.55	4.08158785280133				
650.141	2.19637313914958				
650.732	-1.60080737999784				
651.323	-2.90713023692281				
651.915	5.92507868866259				
652.506	7.73999234534591				
653.097	-3.52170084800493				
653.688	4.13383434445582				
654.28	0.201992173363511				
654.871	-2.22481743418202				
655.462	3.8521775088711				
656.054	-0.203257796904282				
656.645	-6.40539091343639				
657.237	-2.33988334842355				
657.828	-1.32367003361777				
658.42	-3.26147642459951				
659.011	0.816231679067543				
659.603	-5.62364143877753				
660.194	0.717234907609773				
660.786	2.66934670593334				
661.377	1.23497585394752				
661.969	-2.06373729810379				
662.561	1.85873874827791				
663.152	1.96345149948749				
663.744	-7.8619929738676				
664.336	2.58691969279225				
664.928	5.27578219163702				
665.52	-4.1432279999409				
666.111	6.84591896427562				
666.703	11.2129448716116				
667.295	5.3012077258985				
667.887	4.47592445789939				
668.479	-0.312492058190301				
669.071	5.3154572348895				
669.663	3.85995727142136				
670.255	4.49053648358015				
670.847	10.3505892855609				
671.439	7.74020487091091				
672.031	7.3233613818183				
672.624	6.49007944419695				
673.216	5.23745521739553				
673.808	9.43551839920152				
674.4	18.5868569055493				
674.992	8.52289815128882				
675.585	2.9476049033395				
676.177	7.69362734430792				
676.769	2.43068496212945				
677.362	10.3672690195239				
677.954	0.634666231271956				
678.546	11.7524387723763				
679.139	4.76837195735317				
679.731	7.31210563356621				
680.324	3.07485488127801				
680.916	14.3270453242947				
681.509	10.3145480884142				
682.101	1.06561996270581				
682.694	10.0376958401713				
683.286	4.48676939510608				
683.879	11.628253451207				
684.472	0.106806672461212				
685.064	6.3130168351813				
685.657	6.43103274465932				
686.25	9.12309401768528				
686.842	10.4203503868833				
687.435	17.4283735999447				
688.028	25.7545619068588				
688.621	24.281006746047				
689.214	41.8095259776911				
689.806	49.9373482101967				
690.399	53.3677124980464				
690.992	68.3325127250485				
691.585	79.9539086340234				
692.178	84.7553309336036				
692.771	102.516162832668				
693.364	120.779118990475				
693.957	127.001895800844				
694.55	138.91283874376				
695.143	160.132199556989				
695.736	171.306701297383				
696.329	195.198460368694				
696.923	203.256871155321				
697.516	203.95568132798				
698.109	225.376850474187				
698.702	232.60508242642				
699.295	231.217735301182				
699.889	238.206194910803				
700.482	240.801211696631				
701.075	238.416121910204				
701.669	226.172932307037				
702.262	229.674512235751				
702.855	213.869219825121				
703.449	200.689982325495				
704.042	186.023951817341				
704.636	182.81057765185				
705.229	179.490280728312				
705.823	153.041802981584				
706.416	128.937501115379				
707.01	118.907017170078				
707.603	111.834527409128				
708.197	99.9013719855775				
708.79	77.6168181386654				
709.384	67.2255209395884				
709.978	56.9383261624811				
710.571	44.3161257977788				
711.165	35.7369428148821				
711.759	31.78503977701				
712.353	21.336100038002				
712.946	12.3453296831215				
713.54	12.6923746900415				
714.134	4.2313999687583				
714.728	2.17298738429725				
715.322	0.57318338480939				
715.915	11.9732293157569				
716.509	-7.2545850553227				
717.103	-3.5694486445757				
717.697	7.15145791715548				
718.291	2.543372765849				
718.885	-2.31862434392839				
719.479	2.553052352284				
720.073	1.62600508820244				
720.667	-5.70562566572274				
721.261	-1.51678158331203				
721.855	-2.92070192971304				
722.449	2.80802419468051				
723.044	-1.40609542499832				
723.638	-0.234540914737814				
724.232	5.8720883361658				
724.826	6.35746516826118				
725.42	-4.24650316081799				
726.015	1.89046175672937				
726.609	5.07736352326347				
727.203	2.71575792239051				
727.797	2.8372051464001				
728.392	2.36742878731695				
728.986	0.948263276610288				
729.58	7.71971665677274				
730.175	-1.30916669359466				
730.769	8.11266459090435				
731.364	3.82277026096739				
731.958	-5.73771100786317				
732.552	11.716113378472				
733.147	5.97991590079691				
733.741	0				
734.336	0				
734.93	-0.481888500779397				
735.525	-7.12605778980074				
736.12	-3.75282996557657				
736.714	0.606387944746658				
737.309	3.76289197869564				
737.903	-3.03462835468029				
738.498	0.121270608023683				
739.093	1.09106136486514				
739.687	1.33872761324413				
740.282	2.56255394125553				
740.877	0.855283196686791				
741.472	-2.69901889822178				
742.066	9.11851179860429				
742.661	13.4491433616443				
743.256	-0.741221116257118				
743.851	-2.22605052169468				
744.446	-0.495423625947171				
745.041	12.0323758995619				
745.635	-3.22475126259448				
746.23	1.98605528866848				
746.825	6.09617796024307				
747.42	-7.97748398104816				
748.015	4.2453986468714				
748.61	1.87601314720446				
749.205	1.50354340245034				
749.8	-0.251140649787309				
750.395	0				
750.99	5.16493670483959				
751.585	3.6543880676696				
752.18	-4.92063118227738				
752.776	1.0128299868464				
753.371	0.509272955919949				
753.966	-1.79483768867572				
754.561	2.18248246711721				
755.156	8.8694591214653				
755.751	8.11293876862412				
756.347	-4.52022034697661				
756.942	5.57364963296385				
757.537	5.98779819399534				
758.132	4.31321655403616				
758.728	5.63957982999054				
759.323	-1.8370967085127				
759.918	-6.02456925603375				
760.514	3.02747283861221				
761.109	-6.617987096835				
761.704	-0.929316296715867				
762.3	1.72976246296498				
762.895	4.79727451572223				
763.491	7.20725535899741				
764.086	0.133704649763522				
764.681	8.31353419792107				
765.277	1.34432784697551				
765.872	0.538910999886215				
766.468	6.60028904835501				
767.063	1.21141044547272				
767.659	-3.77024046097787				
768.255	4.98551537177059				
768.85	3.91185911540193				
769.446	11.7155062845601				
770.041	-1.34341002689215				
770.637	8.60985775942115				
771.233	13.2305215681331				
771.828	7.4761044129841				
772.424	5.73054507502685				
773.02	-2.87221194104771				
773.615	1.6402601842676				
774.211	-6.56934591190171				
774.807	-3.43757477780591				
775.402	9.81512560058121				
775.998	1.39027632497318				
776.594	13.9633755887524				
777.19	-8.95901260331407				
777.786	11.4628729640504				
778.381	8.11056902846824				
778.977	-0.700092086607404				
779.573	-3.9288997718881				
780.169	11.2458596120682				
780.765	7.17597391765205				
781.361	11.9928888779352				
781.957	19.9721496056544				
782.553	13.7559656564148				
783.149	-1.70550190063174				
783.745	11.1506178526668				
784.341	-0.28503907020359				
784.937	6.49215400052119				
785.533	21.2766204114501				
786.129	5.71226760941115				
786.725	22.286726146153				
787.321	19.0300703140418				
787.917	15.4120464030568				
788.513	18.8947256204739				
789.109	23.1551282106885				
789.705	20.7684651994323				
790.301	24.0198628129367				
790.897	26.4561451684228				
791.494	6.65923054969831				
792.09	20.2325814838653				
792.686	17.4773535378247				
793.282	18.1672852445905				
793.878	14.2673559647598				
794.475	22.3910433706454				
795.071	25.3770705264664				
795.667	19.0088445400495				
796.263	20.3844858464882				
796.86	22.9733098872468				
797.456	14.6407866509032				
798.052	15.5126522863612				
798.649	13.5309070200959				
799.245	18.702727217699				
799.841	12.7945611654083				
800.438	12.484327685617				
801.034	16.0880511412591				
801.63	13.6426673677877				
802.227	17.8899128690801				
802.823	14.6723026408283				
803.42	7.85096895693442				
804.016	19.4343657786409				
804.613	11.8408056399667				
805.209	10.9398747760562				
805.806	11.1972835943163				
806.402	5.40558518346304				
806.999	14.286189413438				
807.595	2.44538377347138				
808.192	14.6723026408283				
808.788	9.52412627562536				
809.385	8.62319541171486				
809.981	11.0685791851862				
810.578	-0.257408818260145				
811.174	3.60372345564203				
811.771	3.98983668303225				
812.368	2.44538377347138				
812.964	6.5639248656337				
813.561	6.17781163824348				
814.158	0				
814.754	7.97967336606449				
815.351	6.30651604737355				
815.948	-5.27688077433297				
816.544	6.17781163824348				
817.141	1.02963527304058				
817.738	-5.01947195607283				
818.335	6.82133368389384				
818.931	-2.44538377347138				
819.528	-2.70279259173152				
820.125	0				
820.722	1.28704409130072				
821.318	10.682465957796				
821.915	6.04910722911341				
822.512	-0.900930863910507				
823.109	4.24724550129239				
823.706	-3.47501904651196				
824.303	8.49449100258478				
824.899	-9.13801304823514				
825.496	-0.900930863910507				
826.093	2.83149700086159				
826.69	4.89076754694275				
827.287	-12.355623276487				
827.884	8.10837777519457				
828.481	1.80186172782101				
829.078	-1.02963527304058				
829.675	-1.4157485004308				
