Wavelength, nm	Sc/Rc	Wavelength	Signal	Baseline_Result	Baseline_Y
Raw CCD	counts/uA	nm	Sc/Rc		
	Fully Corrected Emission Spectrum		Water Raman		Baseline of "Signal"
247.749	2.40907463631978	365	138.618168087308	365	138.618168087308
248.309	-4.95985954536426	365.5	129.456713665601	365.5	137.829150665355
248.868	-6.94380336350997	366	128.060672773751	366	137.040133243402
249.428	11.1951115452508	366.5	118.271402368297	366.5	136.25111582145
249.988	-5.95183145443712	367	122.652919094305	367	135.462098399497
250.549	2.57312724775479	367.5	125.715255263003	367.5	134.673080977544
251.109	-11.6536574478905	368	121.276373963908	368	133.884063555592
251.669	-2.73711709160467	368.5	125.305350846568	368.5	133.095046133639
252.229	-2.27683481206957	369	130.672174309558	369	132.306028711686
252.79	-12.0811715235958	369.5	125.550653936379	369.5	131.517011289734
253.35	-7.54351126511248	370	132.238279983619	370	130.727993867781
253.911	-4.07261994095159	370.5	137.018420805514	370.5	129.938976445828
254.471	-10.9803165189288	371	132.668622959715	371	129.149959023876
255.032	-1.97458500996364	371.5	142.689297937942	371.5	128.360941601923
255.592	-3.72100312806488	372	146.695507467491	372	127.57192417997
256.153	2.86465004410205	372.5	132.255777208465	372.5	126.782906758018
256.714	-11.7295811152155	373	122.419821692169	373	125.993889336065
257.275	-6.76990253480846	373.5	125.300023788179	373.5	125.204871914112
257.835	-2.02111658706276	374	127.617817862241	374	124.41585449216
258.396	6.10946416213027	374.5	129.66866313336	374.5	123.626837070207
258.957	-4.36031193747952	375	116.781080737234	375	122.837819648254
259.518	0.642386207260503	375.5	117.962642957374	375.5	122.048802226302
260.08	-7.21640196967296	376	123.085588231122	376	121.259784804349
260.641	6.39655614254433	376.5	117.255722541942	376.5	120.470767382396
261.202	-4.75048511888819	377	110.322073749442	377	119.681749960444
261.763	-2.25944971862574	377.5	106.368027268835	377.5	118.892732538491
262.325	0.268333352406995	378	104.570880239098	378	118.103715116538
262.886	1.49208989534161	378.5	103.13437812154	378.5	117.314697694586
263.447	2.44082173163382	379	94.1130847527651	379	116.525680272633
264.009	3.78546424335294	379.5	88.5550189483201	379.5	115.73666285068
264.571	-6.95570579593644	380	93.5235432041025	380	114.947645428728
265.132	0.549876765212158	380.5	92.9073071699892	380.5	114.158628006775
265.694	-3.73161029652052	381	90.283507128443	381	113.369610584822
266.256	-2.36582267548675	381.5	100.568834539607	381.5	112.58059316287
266.817	13.3365439399649	382	91.8893063219567	382	111.791575740917
267.379	-0.848416323344786	382.5	77.1621272769652	382.5	111.002558318964
267.941	-8.53937198468963	383	89.6861604809152	383	110.213540897012
268.503	4.84841641168029	383.5	90.5116069853089	383.5	109.424523475059
269.065	-9.43757645433696	384	85.6497410057871	384	108.635506053107
269.627	3.765994717587	384.5	91.0803304513686	384.5	107.846488631154
270.19	-1.89980201506674	385	100.438738418941	385	107.057471209201
270.752	8.194238929902	385.5	114.368108092183	385.5	106.268453787249
271.314	-7.64376107558023	386	117.805614467022	386	105.479436365296
271.876	-6.3659909892939	386.5	140.0047079079	386.5	104.690418943343
272.439	10.1218437949573	387	161.377067830239	387	103.901401521391
273.001	0.897500576510772	387.5	209.303253722908	387.5	103.112384099438
273.564	-13.8249475736233	388	250.379105972083	388	102.323366677485
274.126	11.4604543766776	388.5	294.646560602251	388.5	101.534349255533
274.689	4.07047366477194	389	369.403609087647	389	100.74533183358
275.252	10.8614953733856	389.5	425.542775946263	389.5	99.9563144116272
275.814	-2.56893089466169	390	511.676795257195	390	99.1672969896746
276.377	-3.1750452795901	390.5	599.356826595109	390.5	98.3782795677219
276.94	13.1528719945169	391	704.348250064606	391	97.5892621457692
277.503	6.53928197985671	391.5	822.890522773984	391.5	96.8002447238166
278.066	-5.96380612678467	392	928.778886711783	392	96.0112273018639
278.629	-2.13577572790235	392.5	1043.29554128054	392.5	95.2222098799112
279.192	14.4401966311513	393	1178.87539907475	393	94.4331924579586
279.755	0.906482119520315	393.5	1295.41939250765	393.5	93.6441750360059
280.319	1.35653598803989	394	1433.32004819203	394	92.8551576140533
280.882	14.7792935205493	394.5	1555.42633171413	394.5	92.0661401921006
281.445	6.00758328968672	395	1649.88176029742	395	91.2771227701479
282.008	15.0895070442326	395.5	1731.34543647791	395.5	90.4881053481953
282.572	-2.39698836380113	396	1817.08232964916	396	89.6990879262426
283.135	6.89911441093205	396.5	1896.42798797801	396.5	88.9100705042899
283.699	8.81369006881491	397	1937.4306013485	397	88.1210530823373
284.263	9.36181853123016	397.5	1943.42413746127	397.5	87.3320356603846
284.826	13.2842241640241	398	1946.96303860337	398	86.543018238432
285.39	-3.385456116231	398.5	1915.16148716457	398.5	85.7540008164793
285.954	18.2340261989726	399	1867.97315162722	399	84.9649833945266
286.518	15.4759349253781	399.5	1814.47543848064	399.5	84.175965972574
287.081	7.97565422747295	400	1728.54532263733	400	83.3869485506213
287.645	-4.05600246837871	400.5	1625.89138759683	400.5	82.5979311286686
288.209	10.7183657696555	401	1533.13452814112	401	81.808913706716
288.773	2.32106387737653	401.5	1409.33593849393	401.5	81.0198962847633
289.338	1.7311891214513	402	1305.81610309555	402	80.2308788628106
289.902	17.5618640906623	402.5	1180.60528341293	402.5	79.441861440858
290.466	4.41313482435267	403	1042.37270815765	403	78.6528440189053
291.03	10.944465435551	403.5	920.490296034702	403.5	77.8638265969527
291.595	11.879742158084	404	807.917905655113	404	77.074809175
292.159	17.4513652473098	404.5	697.503753827195	404.5	76.2857917530473
292.724	10.5074357551215	405	601.269509986001	405	75.4967743310947
293.288	0.978931171155722	405.5	505.212134789025	405.5	74.707756909142
293.853	17.6355100805563	406	415.173604518173	406	73.9187394871894
294.417	14.5024812148176	406.5	343.650044979661	406.5	73.1297220652367
294.982	12.0672997691257	407	282.203254678106	407	72.340704643284
295.547	14.58671144385	407.5	230.464223541089	407.5	71.5516872213314
296.111	16.2536826240924	408	184.697420790616	408	70.7626697993787
296.676	13.9957470869613	408.5	145.789279389258	408.5	69.973652377426
297.241	4.88771884749441	409	128.8024104675	409	69.1846349554734
297.806	12.2811064884213	409.5	96.5044652493332	409.5	68.3956175335207
298.371	3.81867754578304	410	81.1987670054336	410	67.6066001115681
298.936	10.0571473550911	410.5	65.2780941652191	410.5	66.8175826896154
299.501	7.19569980612539	411	57.8661199844632	411	66.0285652676627
300.067	22.2553508069513	411.5	60.3899995798076	411.5	65.2395478457101
300.632	13.0444301934659	412	54.6622556098853	412	64.4505304237574
301.197	8.69632899832365	412.5	46.3983603870618	412.5	63.6615130018047
301.763	27.1104904533402	413	40.8517031111243	413	62.8724955798521
302.328	28.3814754887821	413.5	38.220744832267	413.5	62.0834781578994
302.893	9.15910972844503	414	39.9700183988323	414	61.2944607359467
303.459	23.2376898519301	414.5	35.2443518267705	414.5	60.5054433139941
304.025	22.1174283864782	415	28.2890487866817	415	59.7164258920414
304.59	16.4227062622424	415.5	22.115857513387	415.5	58.9274084700888
305.156	16.1320724829888	416	15.2848126631213	416	58.1383910481361
305.722	25.7632859570736	416.5	16.7772601394872	416.5	57.3493736261834
306.287	35.3830869170023	417	18.616658802858	417	56.5603562042308
306.853	23.9414559071146	417.5	18.2510274909071	417.5	55.7713387822781
307.419	34.6591252044701	418	13.9091762194396	418	54.9823213603255
307.985	31.251562333375	418.5	13.4084980530249	418.5	54.1933039383728
308.551	53.8048141121384	419	11.5738943418292	419	53.4042865164201
309.117	59.1489375679765	419.5	4.95037935777246	419.5	52.6152690944675
309.683	64.1269012802264	420	3.42195493378539	420	51.8262516725148
310.25	66.2791840968396	420.5	4.03505503211853	420.5	51.0372342505621
310.816	89.4674654362663	421	4.69830608574191	421	50.2482168286095
311.382	97.1571814310415	421.5	7.39442869482782	421.5	49.4591994066568
311.949	92.8529719169908	422	2.31710300372679	422	48.6701819847041
312.515	111.824604614583	422.5	-2.91261801189277	422.5	47.8811645627515
313.081	117.277482050293	423	1.96593417277142	423	47.0921471407988
313.648	113.743214902154	423.5	5.10431561203149	423.5	46.3031297188462
314.215	134.170824903934	424	-1.37711528977259	424	45.5141122968935
314.781	141.436924533014	424.5	3.06998918289615	424.5	44.7250948749408
315.348	164.512586037354	425	8.49184697656268	425	43.9360774529882
315.915	170.960843533642	425.5	9.39633392410247	425.5	43.1470600310355
316.481	181.525968067252	426	4.74753315144812	426	42.3580426090828
317.048	202.604993263902	426.5	1.35687798542668	426.5	41.5690251871302
317.615	220.704128338596	427	2.32359340896179	427	40.7800077651775
318.182	227.494533621322	427.5	0.14061740036571	427.5	39.9909903432249
318.749	255.715920653706	428	-0.624717026344459	428	39.2019729212722
319.316	275.297548529827	428.5	15.7253441881231	428.5	38.4129554993195
319.883	277.134319287664	429	7.6114540296551	429	37.6239380773669
320.451	294.756882365564	429.5	-0.774458751096231	429.5	36.8349206554142
321.018	306.935387025059	430	0.710203337220996	430	36.0459032334615
321.585	311.662540697389	430.5	3.05749423621984	430.5	35.2568858115089
322.153	323.595142499949	431	3.64308847608447	431	34.4678683895562
322.72	325.963759199809	431.5	-0.422165389922324	431.5	33.6788509676036
323.287	326.118372849969	432	-0.0279558625771498	432	32.8898335456509
323.855	324.306175922249	432.5	-0.499434682464401	432.5	32.1008161236982
324.423	342.279000896734	433	3.76938690686	433	31.3117987017456
324.99	341.157137468697	433.5	8.65985579146118	433.5	30.5227812797929
325.558	344.847238501839	434	6.91447104654923	434	29.7337638578402
326.126	338.057598042304	434.5	3.33766578306479	434.5	28.9447464358876
326.693	356.8874240158	435	3.05055027506246	435	28.1557290139349
327.261	334.673195825883	435.5	1.86986994914418	435.5	27.3667115919823
327.829	328.577549948721	436	5.82800034202021	436	26.5776941700296
328.397	330.586770193923	436.5	-2.865235876239	436.5	25.7886767480769
328.965	317.470876104451	437	-2.043834337219	437	24.9996593261243
329.533	331.718566072808	437.5	1.62511550022976	437.5	24.2106419041716
330.101	344.657570550459	438	1.09108124588089	438	23.4216244822189
330.669	318.392527343907	438.5	1.96596056967931	438.5	22.6326070602663
331.238	313.646279322589	439	-3.09355860930408	439	21.8435896383136
331.806	310.480111950465	439.5	0.672328891278073	439.5	21.054572216361
332.374	318.519581149311	440	3.46580502353732	440	20.2655547944083
332.943	332.935135270239	440.5	3.5285495868752	440.5	19.4765373724556
333.511	288.8939771206	441	2.39542685574052	441	18.687519950503
334.08	289.616020287032	441.5	3.28688168870288	441.5	17.8985025285503
334.648	268.535798974635	442	1.67592747049538	442	17.1094851065976
335.217	275.345069228009	442.5	-4.23597228374556	442.5	16.320467684645
335.785	253.66707259575	443	-1.97604448684302	443	15.5314502626923
336.354	258.545498798017	443.5	-5.02350529628447	443.5	14.7424328407397
336.923	242.874249275778	444	3.27588411152337	444	13.953415418787
337.492	230.809300936113	444.5	4.66701695529899	444.5	13.1643979968343
338.061	241.724223646937	445	3.19223142665895	445	12.3753805748817
338.629	236.079954404414	445.5	1.86675993027988	445.5	11.586363152929
339.198	230.51114517882	446	-3.19798957307762	446	10.7973457309763
339.767	244.516813363204	446.5	0.629403946583586	446.5	10.0083283090237
340.337	249.777838823069	447	-9.21758363178554	447	9.21931088707103
340.906	288.476465206492	447.5	-4.92723410553186	447.5	8.43029346511835
341.475	338.398268078465	448	-0.605514892553247	448	7.6412760431657
342.044	456.179773394701	448.5	-1.11416153065717	448.5	6.85225862121303
342.613	641.478109579395	449	1.850919980235	449	6.06324119926038
343.183	994.650528855068	449.5	5.89651168770863	449.5	5.27422377730773
343.752	1476.68590161397	450	4.48520635535506	450	4.48520635535505
344.322	2163.57295205782				
344.891	3078.75881396725				
345.461	4185.17712804061				
346.03	5511.78879843972				
346.6	7044.70874021721				
347.17	8582.80716369916				
347.739	8550.15902668369				
348.309	8594.72016896154				
348.879	8589.04678653955				
349.449	8535.87353415626				
350.019	8669.34920346891				
350.589	8562.51958283434				
351.159	8627.44543812712				
351.729	8613.48207145958				
352.299	8666.32291151312				
352.87	8746.96154386859				
353.44	8684.74955771957				
354.01	8703.31305276665				
354.581	7298.09208798436				
355.151	5713.96240696526				
355.722	4325.06467266824				
356.292	3140.31080495925				
356.863	2168.93268738368				
357.434	1451.62976934637				
358.004	909.391658982933				
358.575	584.956770285381				
359.146	399.88114851555				
359.717	285.066920251577				
360.288	217.424623686701				
360.859	204.389412193429				
361.43	170.715592980416				
362.001	170.93343292578				
362.572	153.757766865565				
363.143	147.223904766167				
363.714	150.858990489229				
364.286	133.254784385715				
364.857	139.62740531025				
365.428	130.143872287268				
366	128.060672773751				
366.571	117.696307219482				
367.143	124.833479067908				
367.714	124.026581086608				
368.286	121.530014453193				
368.858	131.14915792171				
369.43	125.601186740767				
370.001	132.255347863842				
370.573	136.743353792011				
371.145	133.320569236031				
371.717	147.727801047564				
372.289	139.202778229416				
372.861	123.363731141738				
373.433	124.889650694683				
374.005	127.655412544066				
374.578	128.620792507652				
375.15	114.235591029298				
375.722	122.067095361353				
376.295	120.23023239213				
376.867	111.887500310395				
377.439	106.729044015705				
378.012	104.557123781909				
378.584	102.195249223766				
379.157	91.2178148691287				
379.73	89.7949128854311				
380.302	95.4056544670434				
380.875	88.7462302600861				
381.448	100.167569566378				
382.021	91.1635810537156				
382.594	77.2132519522587				
383.167	93.7724317158074				
383.74	85.8514179557063				
384.313	89.1965923064625				
384.886	97.1167156435688				
385.459	113.834282021299				
386.032	118.565633451914				
386.606	145.05012682087				
387.179	173.744996886042				
387.752	235.673998075608				
388.326	272.216330496962				
388.899	356.716119925902				
389.473	421.821409237014				
390.046	519.983965887728				
390.62	622.052019446888				
391.194	750.159107698642				
391.767	882.165209371177				
392.341	1001.91529108019				
392.915	1157.78204390092				
393.489	1292.642368379				
394.063	1450.42619146668				
394.637	1583.68946432571				
395.211	1684.73528225468				
395.785	1778.97384273701				
396.359	1877.0378065895				
396.933	1934.70121834002				
397.507	1943.49366818369				
398.082	1944.811631777				
398.656	1900.27699245037				
399.23	1845.28318744895				
399.805	1767.66577653013				
400.379	1648.14680916294				
400.954	1543.27813186294				
401.528	1402.84921827438				
402.103	1283.34467174187				
402.677	1130.88469375384				
403.252	978.190342266715				
403.827	847.496381676295				
404.402	717.793403926824				
404.977	605.645534309348				
405.551	495.536423056298				
406.126	395.178838224606				
406.701	318.58013118019				
407.276	251.701136789281				
407.852	198.925972999223				
408.427	149.429300902668				
409.002	128.705686950188				
409.577	92.4251655750566				
410.152	77.7923820528353				
410.728	58.7955530973193				
411.303	60.3236094149833				
411.879	56.5578847218857				
412.454	47.0736246343537				
413.03	40.6007610036766				
413.605	38.3206104950033				
414.181	39.6019731211295				
414.756	30.9434857945206				
415.332	24.8549553557608				
415.908	15.8468247864962				
416.484	16.6903187249457				
417.06	18.7203756037284				
417.635	17.4185159459574				
418.211	12.7086997082401				
418.787	13.6515964372717				
419.363	6.32190037339429				
419.94	3.4153414902288				
420.516	4.05017290997059				
421.092	5.10907397123723				
421.668	7.00485816124232				
422.244	-1.48158881167				
422.821	-0.738630169053438				
423.397	5.79386242452669				
423.974	-1.26272491792024				
424.55	3.77723726937382				
425.127	9.20307953371566				
425.703	8.12242889689206				
426.28	1.97211557639728				
426.856	2.07147617842237				
427.433	0.826239933496601				
428.01	-0.411843698551278				
428.587	16.8201518647251				
429.164	2.65811622481896				
429.741	-0.102090802955636				
430.317	1.93875444945257				
430.894	4.18465330400605				
431.472	-0.305581095001033				
432.049	0				
432.626	-0.101581576007632				
433.203	6.29718164427306				
433.78	8.6363224730802				
434.357	3.76500705865906				
434.935	3.26343912357564				
435.512	1.93448907218208				
436.09	5.38597667714403				
436.667	-5.07808985160862				
437.244	1.42008593981472				
437.822	0.404864958332707				
438.4	2.63062543036494				
438.977	-3.03658947401654				
439.555	1.21309301492505				
440.133	3.63477445797633				
440.711	3.1271546084891				
441.288	2.41538670174852				
441.866	3.20832355849854				
442.444	-4.10401457770726				
443.022	-2.00004887238685				
443.6	-4.59651758728684				
444.178	5.99066012538419				
444.756	2.49400760534334				
445.334	3.88560896135899				
445.913	-3.48139184593996				
446.491	0.694569628311896				
447.069	-9.89612519156801				
447.647	-2.46664646707502				
448.226	-0.983238022021618				
448.804	0.0979103737296431				
449.383	5.37200855420562				
449.961	4.77877634627771				
450.54	1.75300984628868				
451.118	5.54369198852206				
451.697	-1.26283594363028				
452.276	4.84807969162861				
452.854	-0.67699179086167				
453.433	1.0627881263337				
454.012	1.73828655809192				
454.591	-3.18352616829058				
455.17	5.01233178509261				
455.749	-0.192726415230028				
456.328	8.9562368966571				
456.907	-1.6357349876039				
457.486	-4.42229287853368				
458.065	-0.480320988521677				
458.644	7.20536281685254				
459.224	8.72940716655715				
459.803	4.39501693800796				
460.382	-2.67122874321333				
460.961	-3.62453243780579				
461.541	-0.952123332091939				
462.12	7.69995925015823				
462.7	1.14027921221391				
463.279	2.37238277529794				
463.859	2.65076343126078				
464.439	7.46817762464258				
465.018	1.60527629319478				
465.598	1.41557569172243				
466.178	0.18854968513765				
466.758	-2.35215893945715				
467.337	-5.81786439034856				
467.917	-2.33854725786411				
468.497	5.88504794590741				
469.077	-2.1461549719053				
469.657	4.38028788509767				
470.237	-6.79855207877935				
470.817	0.186263366456115				
471.398	0.55822569295647				
471.978	-0.650301042455514				
472.558	0.650463387799428				
473.138	-0.836466295648026				
473.719	-7.43352382103595				
474.299	3.2487211438836				
474.879	-2.13094899860845				
475.46	-0.926325940468633				
476.04	8.43035160807115				
476.621	-4.80769280627453				
477.201	3.50789667970373				
477.782	-0.184501893735347				
478.363	-4.05582187480114				
478.943	-5.98637599172471				
479.524	7.64403211345784				
480.105	0.460550177536308				
480.686	3.96248004822381				
481.267	5.53218360075794				
481.848	-8.21195687255315				
482.429	-5.72183183642706				
483.01	-4.52230934016524				
483.591	-2.03414094950738				
484.172	0.277757701451671				
484.753	2.40776318368124				
485.334	1.85124726970373				
485.915	-4.16119085512929				
486.497	-4.343782930652				
487.078	1.20098844286815				
487.659	2.58671713147676				
488.241	1.3855709335305				
488.822	-5.3560323869952				
489.404	-3.23429027199472				
489.985	1.94271465397726				
490.567	6.76240584917256				
491.148	-2.87405151868169				
491.73	0.0926398913942312				
492.312	6.20307802240444				
492.893	1.758250668844				
493.475	-0.184807203991641				
494.057	-0.184554174363157				
494.639	2.03341904747976				
495.221	-5.82860515925202				
495.803	-4.99533725355382				
496.385	-0.277326148192416				
496.967	-5.81809948167413				
497.549	0.277138914826099				
498.131	-4.89685675393872				
498.713	-7.75580590744056				
499.295	-7.10037745551789				
499.877	-0.64428036530014				
500.46	-0.645013473951469				
501.042	-2.40004286211246				
501.624	-7.75256867075962				
502.207	-1.01461848074442				
502.789	3.03981473654054				
503.372	3.50131355644654				
503.954	0.737977552245088				
504.537	1.47547538450655				
505.119	-4.51691464184809				
505.702	-3.22600531598991				
506.284	1.19792008180982				
506.867	0.73687627834703				
507.45	-4.05041315303217				
508.033	-0.0919991391651994				
508.616	-2.02417444133964				
509.198	-2.75903607761391				
509.781	2.57132030016201				
510.364	0				
510.947	-1.7407750108038				
511.53	2.10718965946755				
512.113	-1.9235641403155				
512.697	3.65892252712573				
513.28	10.6918673358565				
513.863	-6.02792807191854				
514.446	0.638944333883584				
515.029	-2.73679979775661				
515.613	-4.38044191669909				
516.196	-1.18624917777658				
516.78	1.91431911976031				
517.363	2.46025232208925				
517.946	3.00681694398407				
518.53	-3.91901883056186				
519.114	1.36731247730414				
519.697	-0.182228988982774				
520.281	1.63887966864971				
520.864	-0.90955494723704				
521.448	-4.18593724304178				
522.032	3.82508100085422				
522.616	-4.27592454895497				
523.2	-2.90875076432843				
523.783	2.90731647488433				
524.367	-4.08425657246255				
524.951	-5.07588468655198				
525.535	-1.90037965107763				
526.119	-9.76578038953655				
526.703	-3.17311455112481				
527.287	5.54100089052461				
527.872	1.9099281224398				
528.456	-1.36417748538449				
529.04	3.27269001730703				
529.624	2.63501225875247				
530.209	-2.99923797810015				
530.793	-1.7296395026833				
531.377	-1.27451926691354				
531.962	-0.727689621544296				
532.546	0.18228047892525				
533.131	7.76219346687315				
533.715	-3.74899985592167				
534.3	-1.83102946413727				
534.884	-3.20800331463651				
535.469	-1.74244334436518				
536.054	-1.28460875155966				
536.638	-5.24070403735486				
537.223	1.10629453666708				
537.808	-4.99741080654072				
538.393	3.06282479441937				
538.978	1.39559210385914				
539.563	-0.558738472979647				
540.148	-0.372707862882082				
540.733	-4.56482050529923				
541.318	-3.62992980095465				
541.903	-0.464671461902943				
542.488	-1.49019629171083				
543.073	-0.747263812526488				
543.658	-4.77739612198949				
544.243	-1.96986348499808				
544.829	0.656162250043843				
545.414	0.375302458769278				
545.999	-4.22897433603497				
546.585	1.41193818831653				
547.17	-4.33628913027005				
547.755	-3.20862762283206				
548.341	-1.51227510563371				
548.926	-4.3558509068928				
549.512	2.56036703656432				
550.097	-0.6645579889699				
550.683	-5.31644672639381				
551.269	-4.55933156262856				
551.854	-4.46942455544395				
552.44	2.8542614510918				
553.026	-4.47265052830932				
553.612	-4.56140823271142				
554.198	-4.17733612875696				
554.783	-0.0949349411642924				
555.369	-1.4263272785544				
555.955	-2.57404460436727				
556.541	-1.90576626561071				
557.127	4.09631233410577				
557.713	-6.77364502713775				
558.3	-3.34399506367563				
558.886	4.40130099498193				
559.472	0				
560.058	2.00341722902229				
560.644	-8.87184958119555				
561.231	-6.39629458778053				
561.817	-4.87834839527351				
562.403	-6.41295710572473				
562.99	-2.20158182806669				
563.576	2.58469749121857				
564.162	2.10682826979696				
564.749	-0.191740930927481				
565.336	3.16665228145595				
565.922	0.192070275940055				
566.509	-0.28819438727018				
567.095	0.480573291135226				
567.682	-2.79288156672925				
568.269	-5.88302498291256				
568.855	-2.60590128972436				
569.442	-1.35153091808527				
570.029	-7.14515016760367				
570.616	-5.2265839013981				
571.203	-9.11536564568541				
571.79	-4.56193450964286				
572.377	-0.291480073213945				
572.964	-4.57129436163768				
573.551	-6.52580250566601				
574.138	2.24316136885254				
574.725	3.31901020829313				
575.312	-5.66800898480521				
575.899	0.58707454539582				
576.486	-1.46907539600056				
577.073	-5.58761925878184				
577.661	-8.73471836413618				
578.248	-1.57164042850398				
578.835	-4.61876448982971				
579.423	6.59528094248545				
580.01	-7.20124856862246				
580.598	7.4048404443314				
581.185	-0.790511951446268				
581.773	4.54915487994363				
582.36	2.17691659977618				
582.948	-0.692940399077296				
583.535	0.296781043644345				
584.123	-5.53769968568552				
584.711	0.692869888916581				
585.298	-2.87266695556577				
585.886	4.95582471552532				
586.474	-0.991553408388972				
587.062	4.36439828086072				
587.649	0.09923932104772				
588.237	-2.8808437042935				
588.825	-3.48305828053042				
589.413	0.099612588812177				
590.001	-2.29253171659403				
590.589	-6.87829870275756				
591.177	-0.598046094341487				
591.765	-2.98841001590485				
592.353	-5.38132794361968				
592.942	-0.997623537113378				
593.53	-5.29021076917718				
594.118	0.299559013388829				
594.706	-1.89722595785766				
595.294	-2.39823111619747				
595.883	5.30371767791906				
596.471	3.90614464068264				
597.06	-4.61035627467294				
597.648	-1.40335779492026				
598.236	-2.80911476750543				
598.825	7.43828795686274				
599.413	4.32514802129143				
600.002	-3.72219948595823				
600.59	-4.83350504301709				
601.179	-3.12531391215557				
601.768	0.504908770868858				
602.356	0.101005709650354				
602.945	-0.201875401658307				
603.534	-4.03879370762145				
604.123	1.41497032512426				
604.711	0.304152677516828				
605.3	-0.101626294335424				
605.889	-2.85033474879412				
606.478	-4.78545829052143				
607.067	2.74889952187602				
607.656	-0.611162674903932				
608.245	-8.76628235822352				
608.834	-4.89791458376162				
609.423	3.16555710999145				
610.012	-7.15242334755311				
610.601	2.965299849323				
611.19	-4.50327129674943				
611.779	-0.81989415299522				
612.369	0.923942302883096				
612.958	-3.70272640946527				
613.547	-3.08979071151665				
614.136	-1.23757860209243				
614.726	-5.47388190713958				
615.315	-1.03445585353179				
615.905	-0.932619895055955				
616.494	2.90236685598525				
617.083	0.310993279965005				
617.673	-5.28894215103181				
618.262	-0.830279354699401				
618.852	2.39004805681928				
619.442	3.74569792687192				
620.031	-2.81284956724605				
620.621	-1.77331907953259				
621.211	-0.939784771825731				
621.8	-0.626892190016426				
622.39	1.35844954890297				
622.98	-0.731400867469049				
623.57	-8.58155884414828				
624.159	-0.62882919954377				
624.749	1.99307086291661				
625.339	-6.8304076013788				
625.929	-5.266769663179				
626.519	0.949101477986061				
627.109	5.91128184169984				
627.699	-9.08711515268793				
628.289	-3.06690572821548				
628.879	-1.69330771089346				
629.469	-4.13258201413756				
630.059	2.65272834582284				
630.649	-1.80621419941505				
631.24	-0.531895475033725				
631.83	-2.12997387488533				
632.42	5.32893951560758				
633.01	3.51920616499321				
633.601	-3.30738611572037				
634.191	2.34810713823874				
634.781	-15.8010929606589				
635.372	1.70779517082498				
635.962	0.320026881533049				
636.553	2.77578705284843				
637.143	-5.66325262820377				
637.734	-3.42203827366226				
638.324	-2.56792425119391				
638.915	-1.60549845020569				
639.505	-1.17679552964656				
640.096	-0.10696129416144				
640.687	-3.10826967844587				
641.277	0.429473055017145				
641.868	-0.75262052671213				
642.459	2.69144369401804				
643.05	-2.26368687267846				
643.64	-11.5472083148537				
644.231	-8.21423375815002				
644.822	4.1157697493868				
645.413	3.25506842530188				
646.004	-6.19470059630312				
646.595	-4.13249120024006				
647.186	2.17685606644094				
647.777	-1.30781075797878				
648.368	-4.25619505396007				
648.959	-4.15289682039118				
649.55	3.94598746687846				
650.141	-1.86870295812048				
650.732	1.65241170591376				
651.323	-1.5452631024765				
651.915	3.0960506064949				
652.506	-0.332031256907238				
653.097	5.09624335237698				
653.688	-6.10576114132638				
654.28	1.77923141369107				
654.871	-0.556736392912742				
655.462	8.70613116854611				
656.054	-5.8187335516534				
656.645	-1.56725994494181				
657.237	-2.35230468877118				
657.828	5.71760922160031				
658.42	-0.112220493439947				
659.011	-5.9539781652952				
659.603	-4.39063614877212				
660.194	-2.14350691078977				
660.786	-1.13041925427112				
661.377	-1.69971609999823				
661.969	-11.2477983291287				
662.561	-5.68491218501681				
663.152	-4.3237251832279				
663.744	1.93631446214494				
664.336	4.78520047657518				
664.928	1.70850340729971				
665.52	12.7733488436183				
666.111	-6.39563623273871				
666.703	-3.3151397288413				
667.295	0.343347436778498				
667.887	-2.52141819293391				
668.479	2.29380045277206				
669.071	2.18037885667638				
669.663	-2.41217035935618				
670.255	2.98958585689481				
670.847	-2.87791391320916				
671.439	-8.63753675239173				
672.031	6.79629694517166				
672.624	11.2951579360918				
673.216	11.0720862442371				
673.808	-0.69259988562805				
674.4	0.115622032049914				
674.992	-0.57926887366571				
675.585	-2.31819061522558				
676.177	2.78501434770139				
676.769	8.37801711615102				
677.362	4.42618740259896				
677.954	2.09640194917815				
678.546	0.349731042074901				
679.139	4.66686793817184				
679.731	6.41747173029962				
680.324	5.72045554274281				
680.916	6.54363101277579				
681.509	14.2838805623201				
682.101	5.63185537676379				
682.694	5.40843878389533				
683.286	0.705738187138462				
683.879	9.04454294271007				
684.472	1.52879638089154				
685.064	3.77001278384949				
685.657	1.41618054937974				
686.25	4.7270601092027				
686.842	7.68832712548609				
687.435	10.1870445740844				
688.028	14.23788302663				
688.621	13.9020210563121				
689.214	18.4375786348309				
689.806	17.7328147913307				
690.399	29.6782934409651				
690.992	28.5425421528967				
691.585	45.2709210448274				
692.178	52.4551845148437				
692.771	61.5794046297713				
693.364	76.9151365448357				
693.957	80.8500320663012				
694.55	105.01064453247				
695.143	116.941673420768				
695.736	125.544465779946				
696.329	146.976965680752				
696.923	158.959334717444				
697.516	168.394253628033				
698.109	178.215830134965				
698.702	188.039540960838				
699.295	199.994834015488				
699.889	208.517221072886				
700.482	209.444309330138				
701.075	213.599226925671				
701.669	210.725526583322				
702.262	224.135777131269				
702.855	211.811046383167				
703.449	202.994157737986				
704.042	196.241862416079				
704.636	189.869713606623				
705.229	176.611739988901				
705.823	171.83038071087				
706.416	157.384699268495				
707.01	143.162077749239				
707.603	134.543990740259				
708.197	126.030031736238				
708.79	100.387708625775				
709.384	86.8537187709377				
709.978	79.0519518533475				
710.571	60.3048340150208				
711.165	52.2554645329935				
711.759	40.390788959572				
712.353	39.3211018146097				
712.946	27.0598450514892				
713.54	19.6404942550065				
714.134	7.17736642604849				
714.728	8.43696631963398				
715.322	6.3110482641284				
715.915	9.76060179038631				
716.509	2.02861633771294				
717.103	3.2962542349966				
717.697	-0.127002072055875				
718.291	7.12825572410756				
718.885	1.91469482482223				
719.479	3.06659335337451				
720.073	0.383639245359113				
720.667	3.71803181492704				
721.261	6.68022279229646				
721.855	-3.47311290568134				
722.449	1.5458906075376				
723.044	6.96683007016763				
723.638	2.32417610985681				
724.232	1.68102370193508				
724.826	-2.46292813142854				
725.42	1.55854054810098				
726.015	0.520374268707019				
726.609	-2.21017485236764				
727.203	5.07032426474463				
727.797	-1.17146661230325				
728.392	2.47632953918093				
728.986	0.522043683085667				
729.58	0.261532646229471				
730.175	-0.655209485070729				
730.769	-5.38575227603452				
731.364	4.99827015360006				
731.958	-10.924043830768				
732.552	2.63266375549483				
733.147	-4.47725569661752				
733.741	3.95545492443214				
734.336	0.528729908483765				
734.93	1.45910708232342				
735.525	0.39895736956166				
736.12	-1.59950774979716				
736.714	-2.13652729650112				
737.309	8.41993067048135				
737.903	2.40572464113611				
738.498	-2.40345485402007				
739.093	1.06783601359268				
739.687	-3.08201878210789				
740.282	-8.33015954604709				
740.877	-5.3812082553483				
741.472	1.08064025224742				
742.066	1.22107590847207				
742.661	6.11348072872596				
743.256	0.680102616815705				
743.851	-1.77016509405214				
744.446	2.31832090984683				
745.041	-4.09740431329121				
745.635	1.91187202213817				
746.23	-7.24361117502196				
746.825	4.24650029903703				
747.42	5.21527810478536				
748.015	-6.18671318399069				
748.61	6.19676520460411				
749.205	0.275913294987066				
749.8	-1.38259482383578				
750.395	-1.1079842249576				
750.99	12.4833620146933				
751.585	1.38747310992692				
752.18	-3.19515515519795				
752.776	1.67276802671185				
753.371	0				
753.966	2.1173678404256				
754.561	-5.51282692286811				
755.156	5.94436193933732				
755.751	-10.0670889558515				
756.347	0.426599876065113				
756.942	-0.99902684426092				
757.537	7.16617214142444				
758.132	-1.72693693549987				
758.728	-2.5993137661145				
759.323	3.61203459129733				
759.918	3.17247902248693				
760.514	9.85528620185106				
761.109	-2.33175975920622				
761.704	-1.31557596722949				
762.3	6.15318985296284				
762.895	3.08119563260791				
763.491	-3.52691749489615				
764.086	-4.71090555746841				
764.681	6.05321031605762				
765.277	6.51277058261914				
765.872	5.04363770376948				
766.468	-7.86050871291567				
767.063	-9.33678294619968				
767.659	5.63381424809444				
768.255	7.86306949230357				
768.85	-1.18818236748542				
769.446	-6.67209515164026				
770.041	-8.13540510525686				
770.637	5.77681578164666				
771.233	-4.45943720501015				
771.828	1.79598135396486				
772.424	-6.15939998966791				
773.02	-2.10830351625143				
773.615	3.31102215256167				
774.211	3.01383031828122				
774.807	-6.05591883065432				
775.402	-2.73979410296137				
775.998	-2.44922688826329				
776.594	-6.61099432235491				
777.19	9.2478192467885				
777.786	-3.54009870968108				
778.381	-8.16031849814246				
778.977	1.2333406906086				
779.573	10.1968202311689				
780.169	1.70256328800586				
780.765	-3.40832707847073				
781.361	4.19446482595561				
781.957	1.24768109202146				
782.553	11.2424186513918				
783.149	4.69461654625116				
783.745	9.4441633150584				
784.341	-3.29535039873168				
784.937	6.06043080789883				
785.533	12.3380460401279				
786.129	9.90597008204351				
786.725	15.6732002249902				
787.321	12.3813777283114				
787.917	16.6522812768563				
788.513	7.78167847882077				
789.109	-2.86818804450993				
789.705	9.50114572309254				
790.301	7.25683246892933				
790.897	18.8862221148011				
791.494	18.1710063127798				
792.09	-4.61454801310648				
792.686	11.3857248085939				
793.282	6.6139379377796				
793.878	23.8065797769701				
794.475	18.0036943267584				
795.071	13.9707396567312				
795.667	13.2445948199543				
796.263	19.3316583259683				
796.86	6.85407846295757				
797.456	8.6300437176932				
798.052	14.9655435454131				
798.649	18.0088554125537				
799.245	18.4510403256292				
799.841	12.0986590446274				
800.438	-0.141710272724693				
801.034	12.6122142724977				
801.63	13.6041861815705				
802.227	14.5961580906434				
802.823	5.95183145443712				
803.42	7.22722390895935				
804.016	11.4785320907002				
804.613	17.4303635451373				
805.209	3.68446709084202				
805.806	8.92774718165567				
806.402	14.8795786360928				
806.999	5.24328009081365				
807.595	5.38499036353834				
808.192	5.10156981808896				
808.788	0.283420545449386				
809.385	6.66038281806058				
809.981	6.51867254533589				
810.578	7.22722390895935				
811.174	7.79406499985813				
811.771	5.66841090898773				
812.368	11.0534012725261				
812.964	7.51064445440874				
813.561	1.98394381814571				
814.158	5.95183145443712				
814.754	11.9036629088742				
815.351	8.64432663620629				
815.948	-0.42513081817408				
816.544	-6.2352519998865				
817.141	2.83420545449386				
817.738	-3.82617736356672				
818.335	9.21116772710506				
818.931	1.55881299997163				
819.528	-3.96788763629141				
820.125	-6.94380336350997				
820.722	-11.0534012725261				
821.318	-4.1095979090161				
821.915	-15.5881299997163				
822.512	3.96788763629141				
823.109	-0.141710272724693				
823.706	-7.36893418168405				
824.303	-5.24328009081365				
824.899	2.40907463631978				
825.496	-9.77800881800383				
826.093	-0.850261636348159				
826.69	6.09354172716181				
827.287	-2.1256540908704				
827.884	0.141710272724693				
828.481	0.141710272724693				
829.078	-5.52670063626304				
829.675	13.1790553633965				
