Wavelength, nm	Sc/Rc	Wavelength	Signal	Baseline_Result	Baseline_Y
Raw CCD	counts/uA	nm	Sc/Rc		
	Fully Corrected Emission Spectrum		Water Raman		Baseline of "Signal"
246.74	3.47940213925925	365	138.246734346508	365	142.745651066217
247.3	8.28429080776012	365.5	136.148608201437	365.5	141.937400030816
247.86	6.29606101389769	366	142.823542773264	366	141.129148995416
248.42	-2.98234469079364	366.5	140.604792087307	366.5	140.320897960016
248.98	5.13626030081127	367	131.452155661153	367	139.512646924616
249.54	8.28429080776012	367.5	131.856868130492	367.5	138.704395889216
250.1	8.20764223456904	368	140.957239874761	368	137.896144853816
250.66	2.14869868739049	368.5	142.346560766855	368.5	137.087893818416
251.221	4.55952906205047	369	137.52626770204	369	136.279642783016
251.781	3.47718419000176	369.5	140.5816914788	369.5	135.471391747615
252.341	11.647600021105	370	134.663140712215	370	134.663140712215
252.902	4.93566571550666	370.5	132.518728401305	370.5	133.854889676815
253.462	6.07016787442971	371	135.84607087447	371	133.046638641415
254.023	0.432738049357351	371.5	135.16303869404	371.5	132.238387606015
254.584	12.2610889353339	372	135.258912878266	372	131.430136570615
255.144	-8.37732392049564	372.5	142.254897779138	372.5	130.621885535215
255.705	1.59681505807527	373	140.266499928188	373	129.813634499814
256.266	-10.6344260749579	373.5	124.101113215054	373.5	129.005383464414
256.827	1.02164459665202	374	131.498375747259	374	128.197132429014
257.388	0.880822324185718	374.5	126.179018960043	374.5	127.388881393614
257.949	3.55002869372949	375	120.820286959624	375	126.580630358214
258.51	11.6254120354662	375.5	121.692803806989	375.5	125.772379322814
259.071	4.35155504745865	376	118.223077289741	376	124.964128287414
259.632	7.66299533402014	376.5	118.110904708107	376.5	124.155877252013
260.194	5.89153829023285	377	109.300296051392	377	123.347626216613
260.755	6.73316867266367	377.5	104.715875279332	377.5	122.539375181213
261.316	10.6611494067601	378	96.8400603584711	378	121.731124145813
261.878	11.671736867045	378.5	105.39862986881	378.5	120.922873110413
262.439	1.57217063709612	379	100.572247273025	379	120.114622075013
263.001	0.953664356029828	379.5	94.7516607502265	379.5	119.306371039613
263.562	13.7842633988025	380	104.290351649904	380	118.498120004213
264.124	10.6096791379381	380.5	96.9918866293375	380.5	117.689868968812
264.686	3.03517776936454	381	95.4421976199189	381	116.881617933412
265.247	5.1489249757999	381.5	91.9758059042824	381.5	116.073366898012
265.809	-20.7062354019674	382	96.8089922100127	382	115.265115862612
266.371	10.1061987283068	382.5	91.4890039422957	382.5	114.456864827212
266.933	16.7719166468842	383	95.2341770720776	383	113.648613791812
267.495	16.2237320336325	383.5	100.676603234716	383.5	112.840362756412
268.057	10.4919556399335	384	92.398549861165	384	112.032111721011
268.619	3.50228437619814	384.5	100.238307776815	384.5	111.223860685611
269.181	22.798124946541	385	113.647395359087	385	110.415609650211
269.744	22.4139814883949	385.5	122.724296927807	385.5	109.607358614811
270.306	2.73453640823729	386	148.785344323073	386	108.799107579411
270.868	8.04298100524303	386.5	175.296601317449	386.5	107.990856544011
271.431	20.3102686367059	387	208.613811298207	387	107.182605508611
271.993	-4.1603907733392	387.5	248.826656878808	387.5	106.37435447321
272.556	6.44586735501074	388	294.706636461008	388	105.56610343781
273.118	12.0790097674784	388.5	366.642300242846	388.5	104.75785240241
273.681	1.23103546378677	389	439.587007132992	389	103.94960136701
274.244	19.7454860209713	389.5	525.470067328221	389.5	103.14135033161
274.806	10.7515917619136	390	602.996147474614	390	102.33309929621
275.369	17.996861911806	390.5	706.916229163116	390.5	101.52484826081
275.932	16.4371680722235	391	823.583385558225	391	100.71659722541
276.495	12.9042077965643	391.5	941.369902236205	391.5	99.9083461900094
277.058	4.24511843800281	392	1077.15078050095	392	99.1000951546092
277.621	-3.91712521913839	392.5	1202.17453143389	392.5	98.2918441192091
278.184	10.7220594049123	393	1325.55718805875	393	97.483593083809
278.747	6.95280026299831	393.5	1457.1885877794	393.5	96.6753420484088
279.311	33.0133389759815	394	1561.19807224746	394	95.8670910130087
279.874	12.7017655710183	394.5	1677.10412501686	394.5	95.0588399776085
280.437	-4.40618649970381	395	1793.8207018554	395	94.2505889422084
281.001	21.8664958273981	395.5	1874.00401401397	395.5	93.4423379068083
281.564	22.100473015833	396	1930.3648015098	396	92.6340868714081
282.128	25.1683135398221	396.5	1961.93505395345	396.5	91.825835836008
282.691	20.5053385582518	397	1986.8932956014	397	91.0175848006079
283.255	21.3752837106461	397.5	1999.34983395567	397.5	90.2093337652077
283.818	14.6589613321149	398	1969.3281956234	398	89.4010827298076
284.382	8.15426286072074	398.5	1906.7978787729	398.5	88.5928316944075
284.946	11.2012071260957	399	1844.28100101506	399	87.7845806590073
285.51	15.4854821750251	399.5	1779.37550646577	399.5	86.9763296236072
286.074	32.8023795748721	400	1690.40062152	400	86.168078588207
286.638	6.81678459521219	400.5	1588.30184048176	400.5	85.3598275528069
287.202	25.9346069372019	401	1475.31549739199	401	84.5515765174068
287.766	20.6578212514662	401.5	1351.50812195946	401.5	83.7433254820066
288.33	23.7166186432271	402	1229.75580873503	402	82.9350744466065
288.894	17.9845938442297	402.5	1090.85129545168	402.5	82.1268234112064
289.458	14.8107434607372	403	958.185151491337	403	81.3185723758062
290.023	9.8308451707561	403.5	851.315039599401	403.5	80.5103213404061
290.587	12.1468613808566	404	729.726775513339	404	79.7020703050059
291.151	17.9286036558796	404.5	624.555593644645	404.5	78.8938192696058
291.716	10.7363739523083	405	517.917786925529	405	78.0855682342057
292.28	18.2470674821487	405.5	439.153268232052	405.5	77.2773171988055
292.845	0.163642436191613	406	372.414491662182	406	76.4690661634054
293.41	15.2089611331942	406.5	308.879201684121	406.5	75.6608151280053
293.974	14.5669712343582	407	252.463467407277	407	74.8525640926051
294.539	23.12500365493	407.5	200.996937644418	407.5	74.044313057205
295.104	17.6477548353308	408	168.842389009381	408	73.2360620218049
295.669	27.4648665499416	408.5	146.145709123916	408.5	72.4278109864047
296.234	22.6510950251607	409	113.878149680446	409	71.6195599510046
296.799	16.8212489671364	409.5	88.2298232818256	409.5	70.8113089156044
297.364	10.32949405841	410	77.3905799108857	410	70.0030578802043
297.929	16.9301352106258	410.5	70.9796111273324	410.5	69.1948068448042
298.494	22.147518378127	411	63.7201927838636	411	68.386555809404
299.059	22.2357222712336	411.5	54.6456268198831	411.5	67.5783047740039
299.625	17.775886172167	412	41.1137904976241	412	66.7700537386037
300.19	11.7443504539662	412.5	46.4429090967174	412.5	65.9618027032036
300.755	22.2478702367948	413	46.1553424860243	413	65.1535516678035
301.321	22.0711657040147	413.5	35.112229392346	413.5	64.3453006324033
301.886	28.5125242910451	414	33.3565834324916	414	63.5370495970032
302.452	11.3686706514359	414.5	32.4972849217669	414.5	62.7287985616031
303.017	16.8419456869075	415	24.6554329651219	415	61.9205475262029
303.583	22.1364308543632	415.5	30.3066753185493	415.5	61.1122964908028
304.149	5.87026088238438	416	27.1110323510596	416	60.3040454554027
304.714	36.1828563789385	416.5	24.0765383631141	416.5	59.4957944200025
305.28	29.1319384641215	417	21.7818520615581	417	58.6875433846024
305.846	31.8218353326791	417.5	18.4406829392096	417.5	57.8792923492022
306.412	35.3901435682434	418	17.655556378141	418	57.0710413138021
306.978	39.7842252545467	418.5	11.8784779420123	418.5	56.262790278402
307.544	51.028723677168	419	2.15423587020754	419	55.4545392430018
308.11	45.8620613525866	419.5	10.4995668293072	419.5	54.6462882076017
308.676	66.9790721146425	420	9.93569786190207	420	53.8380371722016
309.243	60.6905044077742	420.5	12.6732032545793	420.5	53.0297861368014
309.809	63.2049167754436	421	16.8637263104547	421	52.2215351014013
310.375	90.8678091769795	421.5	9.12322455795462	421.5	51.4132840660011
310.942	80.178583523254	422	6.15787401239244	422	50.605033030601
311.508	102.576823042707	422.5	9.64043968360563	422.5	49.7967819952009
312.074	134.821160640462	423	-0.271784656086709	423	48.9885309598007
312.641	137.198616735174	423.5	13.4015997684747	423.5	48.1802799244006
313.208	139.524059713059	424	15.3433948061321	424	47.3720288890005
313.774	142.043950029125	424.5	7.39204041772073	424.5	46.5637778536003
314.341	160.219348693253	425	7.50879656637754	425	45.7555268182002
314.908	174.109378373544	425.5	7.83864781107584	425.5	44.9472757828
315.475	191.445088838471	426	1.26015490658258	426	44.1390247473999
316.041	202.045235117502	426.5	0.40581161442403	426.5	43.3307737119998
316.608	227.58870572583	427	8.4779728127036	427	42.5225226765996
317.175	240.31823163746	427.5	16.9356783503272	427.5	41.7142716411995
317.742	259.887272178741	428	19.6266663639014	428	40.9060206057994
318.309	261.436135996195	428.5	8.27534933868324	428.5	40.0977695703992
318.877	283.093959501991	429	3.02260255393534	429	39.2895185349991
319.444	290.99389555489	429.5	5.22816347154607	429.5	38.4812674995989
320.011	297.609355452821	430	1.58554830584868	430	37.6730164641988
320.578	313.878282364212	430.5	3.45926612951955	430.5	36.8647654287987
321.146	345.917137371372	431	8.71990284467326	431	36.0565143933985
321.713	323.085228075734	431.5	3.76436781125601	431.5	35.2482633579984
322.281	347.336643755268	432	3.60385922002623	432	34.4400123225983
322.848	341.506933283222	432.5	1.29686141354318	432.5	33.6317612871981
323.416	343.396705974389	433	6.46374548414476	433	32.823510251798
323.983	340.964172181653	433.5	12.8251429485567	433.5	32.0152592163979
324.551	353.753084809894	434	3.24125114163986	434	31.2070081809977
325.119	342.563162079024	434.5	4.51477371038178	434.5	30.3987571455976
325.687	351.372350054571	435	2.02977525181589	435	29.5905061101975
326.255	346.959948879926	435.5	3.90754728934247	435.5	28.7822550747973
326.822	341.228672534001	436	7.25242738416518	436	27.9740040393972
327.39	318.819219976423	436.5	11.6464828641548	436.5	27.165753003997
327.958	331.554073172189	437	8.55748805611404	437	26.3575019685969
328.527	341.109326036935	437.5	2.53420676457346	437.5	25.5492509331967
329.095	344.501923985252	438	8.69272976715194	438	24.7409998977966
329.663	351.349487579211	438.5	-0.131065042981528	438.5	23.9327488623965
330.231	325.943335747463	439	1.25147647200477	439	23.1244978269963
330.799	346.593674686909	439.5	9.51540577551628	439.5	22.3162467915962
331.368	342.923890907036	440	9.1543329429843	440	21.5079957561961
331.936	322.580843863617	440.5	3.19367496373454	440.5	20.6997447207959
332.505	314.919955549959	441	2.30241788417044	441	19.8914936853958
333.073	308.525249967567	441.5	2.64502401747722	441.5	19.0832426499957
333.642	293.914294581572	442	-1.3516553233584	442	18.2749916145955
334.21	280.563008861108	442.5	5.9517352037725	442.5	17.4667405791954
334.779	270.173567989557	443	7.30934491749857	443	16.6584895437953
335.348	256.026089271461	443.5	1.85181664038942	443.5	15.8502385083951
335.916	250.613090752342	444	-0.965540559751175	444	15.041987472995
336.485	264.297816141453	444.5	1.9825374467765	444.5	14.2337364375948
337.054	248.314423374528	445	7.09906494928494	445	13.4254854021947
337.623	236.540065775591	445.5	6.33993421729615	445.5	12.6172343667945
338.192	234.225012656743	446	-1.75223680950619	446	11.8089833313944
338.761	231.101653157489	446.5	8.88548630104679	446.5	11.0007322959943
339.33	253.723210307908	447	5.34301277540305	447	10.1924812605942
339.899	282.196158310695	447.5	1.34962452027779	447.5	9.384230225194
340.469	311.713098718467	448	5.43159979151899	448	8.57597918979388
341.038	395.52629626125	448.5	5.16828097276767	448.5	7.76772815439374
341.607	521.679696650794	449	7.74238984515818	449	6.95947711899359
342.177	764.58991383905	449.5	7.94621543996063	449.5	6.15122608359346
342.746	1151.07240144804	450	5.34297504819333	450	5.34297504819332
343.315	1741.91632711032				
343.885	2562.20601796355				
344.455	3511.99625733358				
345.024	4729.68443758969				
345.594	6162.53111309611				
346.164	7755.54913759519				
346.733	9425.8801953465				
347.303	10016.2153646532				
347.873	10013.7433000539				
348.443	9950.95754936009				
349.013	10118.8193593027				
349.583	10001.8276360186				
350.153	10080.75052492				
350.723	10071.7689857638				
351.294	10111.9779249241				
351.864	10206.4345015477				
352.434	10126.4325563699				
353.004	10166.6428681815				
353.575	8637.83859073432				
354.145	6968.43694578089				
354.716	5406.73773504674				
355.286	4037.25155591469				
355.857	2898.43340808403				
356.428	1968.79399172233				
356.999	1305.4497641372				
357.569	821.188619764041				
358.14	535.264897556389				
358.711	366.381316641962				
359.282	267.529301102389				
359.853	214.53324280381				
360.424	192.811469501952				
360.995	186.641469599597				
361.566	176.533508263052				
362.137	170.675932616086				
362.709	164.506438539705				
363.28	158.635549337263				
363.851	143.753385764586				
364.423	147.803564646301				
364.994	138.347790070639				
365.566	136.762078975384				
366.137	143.739986964603				
366.709	136.69652172492				
367.281	129.602426968738				
367.852	138.594213637687				
368.424	142.927636604673				
368.996	137.529041480368				
369.568	140.516771921995				
370.14	132.836051095339				
370.712	133.977153074844				
371.284	136.247231149838				
371.856	134.171330758658				
372.428	141.34978878267				
373	140.266499928188				
373.572	123.409728171471				
374.145	133.236049687898				
374.717	120.995881520987				
375.289	122.840523688073				
375.862	118.260493054245				
376.434	118.748881885822				
377.007	109.200361637964				
377.579	103.671301586862				
378.152	97.0532196702245				
378.725	107.914492295934				
379.297	92.5385090768198				
379.87	103.940055787255				
380.443	97.6180311671819				
381.016	95.3633864464777				
381.589	92.1531435483205				
382.162	97.0852853769374				
382.735	89.643755800606				
383.308	101.991872884086				
383.881	93.126432812238				
384.454	99.0235505915992				
385.027	114.180215666473				
385.601	126.200791282024				
386.174	159.290660941247				
386.748	189.127127677303				
387.321	235.624232189245				
387.894	282.206684081586				
388.468	361.975791842101				
389.042	446.311883041878				
389.615	544.416525858495				
390.189	636.5603415045				
390.763	770.721204945515				
391.336	899.472830245403				
391.91	1053.25763047577				
392.484	1198.29398278121				
393.058	1340.66092398514				
393.632	1488.21873941818				
394.206	1603.75903483036				
394.78	1747.66602608639				
395.354	1852.93906764702				
395.928	1924.08143912569				
396.503	1962.09423850421				
397.077	1990.1575348306				
397.651	1995.82168299632				
398.226	1942.85707635902				
398.8	1867.82066846069				
399.375	1797.92181722513				
399.949	1700.21511397972				
400.524	1583.13612743016				
401.098	1451.71994799364				
401.673	1308.75679848304				
402.248	1164.95331112052				
402.822	999.594176182435				
403.397	875.050581131218				
403.972	736.135845586384				
404.547	614.636838952301				
405.122	495.056882546739				
405.697	413.641403882969				
406.272	336.206597106417				
406.847	269.902629598878				
407.422	207.820755618122				
407.998	168.939119541415				
408.573	142.166353132586				
409.148	104.504952310567				
409.724	81.9283490344517				
410.299	73.8793665799141				
410.874	65.2973153811631				
411.45	56.0618642786892				
412.025	40.9080053762772				
412.601	47.7611056096658				
413.177	42.7516912455074				
413.752	31.8554634713049				
414.328	35.0898488063598				
414.904	24.744538046413				
415.48	30.1977379367407				
416.056	26.5652567986286				
416.632	23.5843283264899				
417.207	20.4565577263548				
417.784	17.428975271198				
418.36	15.2290039775057				
418.936	2.13547868561082				
419.512	10.63793286929				
420.088	9.72777483193064				
420.664	14.5760713215597				
421.241	15.0469495807483				
421.817	4.21595090440346				
422.393	11.1275202605802				
422.97	-0.369832885894443				
423.546	14.5294144918575				
424.123	13.5240551012738				
424.699	5.88385609995331				
425.276	9.16042431828124				
425.853	3.04039387760656				
426.43	-0.121288904186351				
427.006	8.59302195461601				
427.583	17.9779046085577				
428.16	17.5578574736472				
428.737	3.11461189550139				
429.314	5.49645798673482				
429.891	2.14774818954032				
430.468	3.10209007670342				
431.045	8.70998211510577				
431.622	2.73737223390048				
432.199	3.80172146249789				
432.777	1.42506188150946				
433.354	13.7764458548				
433.931	3.92056373905354				
434.509	4.52360539853275				
435.086	1.7884261689309				
435.664	5.23486354566029				
436.241	9.02856288275921				
436.819	11.7538872232135				
437.396	2.0149926092802				
437.974	8.75224227443557				
438.552	-0.828161253541883				
439.129	3.43102649377634				
439.707	10.9881998693313				
440.285	5.42893919019068				
440.863	1.88664300707851				
441.441	3.05630960566459				
442.019	-1.28827440595739				
442.597	7.25421253036371				
443.175	5.61107405760785				
443.753	-0.350418018856786				
444.331	0.466842789683812				
444.91	6.29706307892523				
445.488	6.52045467809215				
446.066	-1.51104192599436				
446.644	10.8975758424588				
447.223	0.92489756410349				
447.801	4.72593984835878				
448.38	4.93769550355198				
448.958	7.54688568296164				
449.537	7.76234476848322				
450.115	5.81313606821465				
450.694	15.2524454658759				
451.273	16.028320853384				
451.852	9.53734250135419				
452.43	5.89101942060701				
453.009	10.622143588388				
453.588	3.50143607896056				
454.167	8.46588831397057				
454.746	4.96145935613741				
455.325	1.91573691595287				
455.904	-0.788605420092799				
456.483	4.16511526856553				
457.062	9.78512655666413				
457.642	9.10244378868502				
458.221	1.12319317875574				
458.8	3.48216367750221				
459.38	4.81756427788178				
459.959	-1.56222858215496				
460.538	7.3613619895155				
461.118	-1.22622920329254				
461.697	6.00826151293336				
462.277	1.88924979346308				
462.856	-2.22176075486865				
463.436	6.20922959130999				
464.016	10.0663838939411				
464.596	5.85616785995847				
465.175	5.96085456178737				
465.755	3.97153314492654				
466.335	-8.48272597030172				
466.915	5.49724490654733				
467.495	3.28855818019836				
468.075	8.74427599639719				
468.655	4.0398724596074				
469.235	5.01685073408943				
469.815	6.20897029783729				
470.395	3.91995539212109				
470.976	3.37554738115414				
471.556	1.08734592010499				
472.136	8.79819162598245				
472.716	0.760579201185636				
473.297	2.28182082940297				
473.877	7.16976898142677				
474.458	-4.01338825550873				
475.038	8.77110665156534				
475.619	6.82366861880181				
476.199	0.324766614384247				
476.78	4.75369585625869				
477.361	0.107911244353574				
477.941	0.32351620560329				
478.522	10.6670041777328				
479.103	7.10636771334717				
479.684	0.323042034930669				
480.265	-4.20057119453366				
480.846	5.49547933152687				
481.427	5.28337172464887				
482.008	0.755301244154046				
482.589	4.20817697242098				
483.17	-4.10251928389099				
483.751	-1.62237807888979				
484.332	6.71192139723269				
484.914	2.38217453910227				
485.495	-4.11133727347343				
486.076	6.48561590344018				
486.658	0.108043467605996				
487.239	1.40417604566997				
487.82	3.99645901830938				
488.402	3.77968545096542				
488.984	4.31842201890308				
489.565	8.42989712733537				
490.147	2.38044546868961				
490.728	-3.35882644086483				
491.31	2.81771477812302				
491.892	6.60569666922973				
492.474	3.8963837117506				
493.055	-0.973523411699044				
493.637	7.01909741977717				
494.219	0.971445009165583				
494.801	-2.37852871570763				
495.383	0.865333088542993				
495.965	0.648920568154657				
496.547	7.88782125928008				
497.129	4.85903883138316				
497.712	3.02458489862607				
498.294	5.18423258599535				
498.876	0.323795310714482				
499.458	4.52580895663609				
500.041	-4.51853196153033				
500.623	-0.538964958751859				
501.205	8.7416306812039				
501.788	0.323704871895402				
502.37	-4.31213725373004				
502.953	-6.02896131705573				
503.536	0.538820345002669				
504.118	-4.09846200459866				
504.701	4.09660648882736				
505.283	-3.44878452432948				
505.866	3.4483972518106				
506.449	2.04678008617013				
507.032	3.01501964416943				
507.615	4.41199436932635				
508.198	7.3145635499487				
508.781	2.04397037517659				
509.363	4.1918358221712				
509.947	3.86369485848459				
510.53	-1.39365498599443				
511.113	0				
511.696	6.53429846889484				
512.279	-1.81991662635028				
512.862	-5.13157216943518				
513.445	4.48675200472621				
514.029	2.88271365883391				
514.612	-1.06702308547891				
515.196	4.37354836391474				
515.779	-5.97575436101324				
516.362	2.87975812521358				
516.946	-1.38515363251656				
517.529	-1.70456420426635				
518.113	-4.04840246608189				
518.697	-0.319706384475864				
519.28	4.90190090124366				
519.864	4.47369724568204				
520.448	0.744953214692767				
521.031	-5.42251235861188				
521.615	-0.212845445222667				
522.199	4.68378299602974				
522.783	4.99784332569358				
523.367	-2.65655732199182				
523.951	5.62911930572876				
524.535	-2.6519092843684				
525.119	3.38972007388804				
525.703	-0.951791768894039				
526.287	0.63481198184185				
526.871	2.01549220102636				
527.456	0.531212475779805				
528.04	5.10539035795744				
528.624	1.48847492979076				
529.208	2.23173713602825				
529.793	-2.44305614699941				
530.377	5.31561987370687				
530.962	1.70376533970415				
531.546	5.95917029675774				
532.131	1.06396503121587				
532.715	-1.49277189262732				
533.3	-0.1068103677679				
533.884	0.427798461197646				
534.469	-1.28491898214209				
535.054	8.57543695340806				
535.639	3.10983502369976				
536.223	4.07908672954208				
536.808	2.15120728806612				
537.393	3.45308334548577				
537.978	1.84147542869166				
538.563	2.49762979472882				
539.148	-0.761695120145192				
539.733	-2.94042975179104				
540.318	1.3072248294172				
540.903	-5.77250036298385				
541.488	-1.95793883490536				
542.073	0.978028682822393				
542.658	3.81454748473466				
543.244	-1.74883939034818				
543.829	10.3037160191443				
544.414	-1.31581095412144				
545	5.4787131169787				
545.585	3.73155109008594				
546.17	5.71629734022069				
546.756	0.440426070760394				
547.341	-3.52805006103301				
547.927	-3.20083600765489				
548.512	5.30727178485488				
549.098	-0.443058119398383				
549.684	3.88209005169766				
550.269	9.2129034770897				
550.855	0.665990869628785				
551.441	-0.333280910456777				
552.027	3.22526029065869				
552.612	2.1137200014452				
553.198	-4.22625717900895				
553.784	2.22122558027769				
554.37	3.77401468698542				
554.956	4.66179598649582				
555.542	3.44910061519974				
556.128	-1.33762098199835				
556.714	-1.44800935713181				
557.3	0.445715238267775				
557.887	-6.2492199042794				
558.473	-4.58194886824557				
559.059	-9.39780015851732				
559.645	6.9234739465396				
560.232	4.12697301350805				
560.818	0.892275572069526				
561.404	-3.35050073674056				
561.991	-9.06407354958124				
562.577	0.111911440308939				
563.164	1.56686077499852				
563.75	3.91750579140795				
564.337	-4.03214022653518				
564.923	-4.37295634482929				
565.51	5.04992629818718				
566.097	2.13368515807318				
566.683	4.71767213936007				
567.27	5.39725440131589				
567.857	0.112666819417334				
568.444	-4.7369710563306				
569.03	-3.8374143520702				
569.617	6.65952685695339				
570.204	-5.98757782570434				
570.791	0.679470067132027				
571.378	-2.26819818646887				
571.965	6.24336216053031				
572.552	-0.6818018526145				
573.139	2.61655509497609				
573.726	-4.89890243719061				
574.313	0				
574.901	7.53488386557784				
575.488	2.1717106069637				
576.075	4.34861989167712				
576.662	0.57269310912279				
577.25	5.96199977951192				
577.837	-3.67319936727749				
578.424	1.60806516419457				
579.012	1.37900905272546				
579.599	3.5701385252369				
580.187	0.346099884327761				
580.774	6.35055477345252				
581.362	2.6578900440698				
581.95	1.50351192729271				
582.537	3.00836318512849				
583.125	3.58748054764503				
583.713	-3.12221801161964				
584.3	3.81648407644402				
584.888	-1.15760840697608				
585.476	4.28599162574365				
586.064	1.50674452823443				
586.652	-3.36235202669128				
587.239	4.05964168250607				
587.827	3.71348822966213				
588.415	9.52912646839208				
589.003	4.54016774153593				
589.591	10.9498695413302				
590.179	-5.94367616197581				
590.768	7.80915897984886				
591.356	2.91290900470712				
591.944	-4.30848023449531				
592.532	8.04214644437476				
593.12	6.88320541066016				
593.709	-8.05364240754051				
594.297	-3.96940458155682				
594.885	-5.37042432774417				
595.474	5.84419650627065				
596.062	9.48049771151075				
596.65	-0.351387178662451				
597.239	3.74998931699147				
597.827	1.40645232388929				
598.416	0				
599.004	2.70457968374328				
599.593	5.88039007472966				
600.182	5.7651091931259				
600.77	2.82647787926993				
601.359	-1.76898684207541				
601.948	-4.01626965888959				
602.536	8.97334036785511				
603.125	-3.89459937290737				
603.714	9.56349204282136				
604.303	-1.65594297072978				
604.892	3.79681483889293				
605.481	2.37763442621234				
606.07	-0.833393917610135				
606.659	3.45214292402204				
607.248	-4.88121171142419				
607.837	2.38223292770312				
608.426	-0.953740522370375				
609.015	2.50615316228174				
609.604	3.10475596672498				
610.193	4.54066777553319				
610.782	-1.91324897083891				
611.372	-3.95054032550245				
611.961	1.19876671845059				
612.55	8.16669644587173				
613.14	-4.45142302116777				
613.729	-5.90288406038445				
614.318	3.13648137355165				
614.908	1.93293422518382				
615.497	-4.23541100523947				
616.087	-5.69595710595383				
616.676	9.45316170862658				
617.266	-4.24262047685248				
617.855	-3.39541415556762				
618.445	-3.76312736869043				
619.035	-9.11577133421557				
619.624	-2.92076247661934				
620.214	-3.04634466281189				
620.804	0.976076864647264				
621.393	5.98335820099302				
621.983	-1.71053931778543				
622.573	-0.977374250070391				
623.163	-8.92199726682479				
623.753	-2.81570721978742				
624.343	5.14796613389943				
624.933	2.0855609860341				
625.523	9.95926336320775				
626.113	0.862506169061652				
626.703	5.05672510224556				
627.293	7.28391762843029				
627.883	-4.20170673600325				
628.473	-0.742053918185191				
629.063	7.3026458508828				
629.653	-7.18878917506864				
630.243	-0.620560106686406				
630.834	9.9419626402302				
631.424	-6.96755749904387				
632.014	-0.747353780442472				
632.605	-8.47511500674325				
633.195	-11.5973286067546				
633.785	1.87136437006224				
634.376	-0.998412563664191				
634.966	1.99742373199706				
635.557	-6.61297841676213				
636.147	8.60753639762263				
636.738	-1.74802020190769				
637.328	-9.37223768846748				
637.919	5.50274566380081				
638.51	2.1269161283612				
639.1	-6.88241271896814				
639.691	1.87585070166523				
640.282	12.7641644645085				
640.872	-1.00316913720496				
641.463	1.25588394249644				
642.054	-1.13185251824699				
642.645	-2.77030300104597				
643.236	-3.53016956136603				
643.826	4.03908971488149				
644.417	-2.02323025493167				
645.008	0.380151980784738				
645.599	-1.52309686598925				
646.19	4.06694676585985				
646.781	4.70547045887626				
647.372	2.54619273643597				
647.963	3.18687477164216				
648.555	-6.63800477615808				
649.146	10.2309097295675				
649.737	1.15452044790938				
650.328	2.18635430045631				
650.919	-6.83097198286518				
651.51	15.1073889231574				
652.102	11.8985179209244				
652.693	-4.01248027523011				
653.284	-4.40692233016212				
653.876	-2.46771953866645				
654.467	-8.58459720299459				
655.059	2.08413484727478				
655.65	5.61642331337371				
656.241	-4.1871503607249				
656.833	-2.749008209338				
657.424	-4.06103827007893				
658.016	3.67118401406629				
658.608	6.16875191332337				
659.199	5.9145798822358				
659.791	15.1474688451449				
660.382	0.131987013996613				
660.974	-2.77727066320457				
661.566	-1.32597613148726				
662.158	5.7137129331125				
662.749	-3.98883972296615				
663.341	9.31538979871857				
663.933	11.8561949228803				
664.525	-4.92829009904767				
665.117	-4.66220410734895				
665.709	10.138975082447				
666.301	-2.13712896991154				
666.892	2.27283009441985				
667.484	6.82749601409239				
668.076	1.34045479273385				
668.669	2.14587212154609				
669.261	6.57642954367909				
669.853	4.56754889496677				
670.445	-0.134487602097935				
671.037	1.21170989582997				
671.629	-1.48126249815091				
672.221	1.34704819361382				
672.813	-3.09996227501252				
673.406	10.5209887231746				
673.998	-0.135000316856896				
674.59	5.6813712228036				
675.183	7.45127031531706				
675.775	8.40347417561637				
676.367	-1.62953817986622				
676.96	10.6211467280225				
677.552	5.44723385477724				
678.144	7.89986948864635				
678.737	3.95402819184898				
679.329	5.59300039590557				
679.922	19.2360510077958				
680.515	15.1554693870666				
681.107	6.97122843164908				
681.7	5.20539354924394				
682.292	12.9036753738018				
682.885	11.6925093452332				
683.478	-0.274924426284232				
684.07	13.3205954997188				
684.663	5.36550327602053				
685.256	0.413465521599388				
685.849	19.0520298548454				
686.441	6.63409037053632				
687.034	7.33200878550934				
687.627	7.34416519211943				
688.22	18.0424256993205				
688.813	13.3429057431962				
689.406	15.9965061228663				
689.999	9.8810978849224				
690.592	32.0722865631085				
691.184	46.2212296067294				
691.777	58.5197381896267				
692.371	61.7631228512975				
692.964	87.6756120893117				
693.557	91.4103771589234				
694.15	111.403894770281				
694.743	126.707449739637				
695.336	134.544600399987				
695.929	147.279566565341				
696.522	144.815779062257				
697.116	162.476271559986				
697.709	174.063605801855				
698.302	189.252577256012				
698.895	208.346113446256				
699.489	205.048061276086				
700.082	221.145685370438				
700.675	229.21482221058				
701.269	231.719684288149				
701.862	227.041537747163				
702.456	219.589179773998				
703.049	218.961833254807				
703.643	206.048265674978				
704.236	199.00244697376				
704.83	202.27618788318				
705.423	179.133909445005				
706.017	172.351655236103				
706.61	161.637245182248				
707.204	144.109779595061				
707.798	123.358501613205				
708.391	125.00860809031				
708.985	105.475334762009				
709.579	86.895855420722				
710.172	82.5478852861336				
710.766	65.4268735587391				
711.36	49.8310508837285				
711.954	39.6109774963063				
712.547	25.2788591977835				
713.141	35.6186259804705				
713.735	17.3707376357226				
714.329	17.6669867268176				
714.923	18.4040116251323				
715.517	2.95567140393707				
716.111	1.77942203807093				
716.705	10.2269733710602				
717.299	6.08089171099433				
717.893	6.83446078090962				
718.487	-0.148963506123917				
719.081	9.40809097577436				
719.675	7.32162918018665				
720.269	-5.53675328652852				
720.863	-3.00051521428587				
721.457	3.45610386805426				
722.051	2.25697158814543				
722.646	-5.72645735325663				
723.24	2.86679243357753				
723.834	-0.604028755183011				
724.428	-6.35501167234716				
725.022	5.15704470795804				
725.617	1.3674456900063				
726.211	-6.38700656869614				
726.805	1.21579370426287				
727.4	3.19334404915458				
727.994	9.1346884969007				
728.588	11.2814777002376				
729.183	1.374203248723				
729.777	-3.82475133522198				
730.372	-9.50681737917999				
730.966	1.07595226067331				
731.561	5.53747693479702				
732.155	0.461680087730762				
732.75	-1.38518130501972				
733.344	0.770135032895112				
733.939	6.47722610385678				
734.533	8.04574237974781				
735.128	-2.79419827953419				
735.723	2.80099726772395				
736.317	-0.467810874407096				
736.912	5.15522004103284				
737.507	2.50019430416191				
738.101	9.37402824369297				
738.696	-7.02257720147694				
739.291	-2.81278218212681				
739.886	10.3538303584403				
740.48	4.40037293983383				
741.075	1.88913900978984				
741.67	4.74557921517719				
742.265	8.72849828278785				
742.86	-0.635641813086343				
743.454	6.99997092790067				
744.049	15.9268586665267				
744.644	-1.75484905139889				
745.239	-7.34531572450092				
745.834	-2.39489795859022				
746.429	2.39875529352573				
747.024	7.85363764236103				
747.619	-4.17449378139437				
748.214	1.92996151683063				
748.809	-4.9938302176593				
749.404	15.8187235467009				
749.999	-4.85308851082689				
750.594	0.486031959449722				
751.19	8.59607628426009				
751.785	-4.38041193834365				
752.38	15.7732264371661				
752.975	2.44751978775935				
753.57	-0.328564309198265				
754.165	13.7077403459284				
754.761	4.46387435211074				
755.356	2.31810743903182				
755.951	-10.7822153700163				
756.546	4.16152430448315				
757.142	8.52183306500506				
757.737	-6.54472679502685				
758.332	0.168453533786265				
758.928	-1.8593539254144				
759.523	5.06449769706582				
760.118	-2.19390141064719				
760.714	-3.73558392800814				
761.309	-3.58185297781696				
761.905	4.44807682582597				
762.5	8.22610983245026				
763.096	-12.8727429970463				
763.691	-2.92246153617381				
764.287	5.16870198779693				
764.882	15.3778819520082				
765.478	4.15652244162696				
766.073	18.5648432616789				
766.669	-1.04011990879398				
767.264	11.9576135812457				
767.86	0.346726961012				
768.456	-0.694098948224887				
769.051	-2.43123326018164				
769.647	4.67635793343487				
770.243	3.11443277898686				
770.838	5.02470495903927				
771.434	15.329509627744				
772.03	14.2035651097181				
772.625	15.8216241799955				
773.221	0.528105405949088				
773.817	8.09265444792393				
774.413	21.1759817917472				
775.009	-6.73722169756797				
775.604	4.99256813338809				
776.2	-8.78277217401192				
776.796	-2.16023701651689				
777.392	0				
777.988	-5.03646517283634				
778.584	16.0286405033277				
779.18	5.41134010929653				
779.775	1.26538254133195				
780.371	0.181022643805172				
780.967	-14.676611460451				
781.563	-0.909377053697874				
782.159	6.56802915455103				
782.755	17.3491287246883				
783.351	6.04974527551247				
783.947	0.368792018986746				
784.543	4.75451351942567				
785.139	19.4510681831253				
785.735	10.798126574338				
786.332	15.1100822648034				
786.928	19.295029941933				
787.524	11.6886981780851				
788.12	6.8622618167402				
788.716	20.4366488153425				
789.312	8.78790602054727				
789.908	4.72389189360177				
790.505	18.4300984010341				
791.101	16.063059876672				
791.697	25.1298050229059				
792.293	7.08842809160107				
792.889	14.6630129260778				
793.486	12.8426003694753				
794.082	17.4362498581279				
794.678	22.9530770097306				
795.275	22.6528877901998				
795.871	24.3336206164919				
796.467	21.4246279192186				
797.064	18.8687417001173				
797.66	26.257099668892				
798.256	27.2571008291588				
798.853	20.1426021615837				
799.449	17.7570293584376				
800.045	21.5391561001763				
800.642	17.231324880141				
801.238	10.2725206016225				
801.835	12.9234936601058				
802.431	8.78134825622572				
803.028	17.0656390639858				
803.624	0				
804.221	10.603892233933				
804.817	3.97645958772486				
805.414	2.98234469079364				
806.01	2.98234469079364				
806.607	11.432321314709				
807.203	7.95291917544971				
807.8	7.2901759108289				
808.397	-0.165685816155202				
808.993	11.9293787631746				
809.59	4.14214540388006				
810.186	5.30194611696648				
810.783	-7.1244900946737				
811.38	9.11271988853613				
811.976	4.47351703619046				
812.573	2.81665887463844				
813.17	9.94114896931214				
813.766	-3.64508795541445				
814.363	10.7695780500882				
814.96	16.8999532478306				
815.557	2.98234469079364				
816.153	9.77546315315694				
816.75	-2.65097305848324				
817.347	7.45586172698411				
817.944	-7.95291917544971				
818.54	-2.65097305848324				
819.137	1.15980071308642				
819.734	0				
820.331	12.260750395485				
820.928	0.165685816155202				
821.525	0.497057448465607				
822.121	17.5626965124514				
822.718	-6.46174683005289				
823.315	11.2666354985538				
823.912	2.98234469079364				
824.509	-7.62154754313931				
825.106	-6.62743264620809				
825.703	0.165685816155202				
826.3	14.4146660055026				
826.897	7.1244900946737				
827.494	13.917608557037				
828.091	4.47351703619046				
828.688	-9.11271988853613				
