230,0.10779
231,0.106049
232,0.104404
233,0.102741
234,0.101306
235,0.09961
236,0.098449
237,0.097389
238,0.09599
239,0.094931
240,0.093873
241,0.09278
242,0.091946
243,0.091243
244,0.090488
245,0.08993
246,0.089219
247,0.088583
248,0.08811
249,0.087745
250,0.087258
251,0.086857
252,0.086488
253,0.085974
254,0.085676
255,0.085469
256,0.084987
257,0.084561
258,0.084122
259,0.083656
260,0.08295
261,0.082678
262,0.08233
263,0.082056
264,0.081559
265,0.081059
266,0.080768
267,0.080549
268,0.080283
269,0.080043
270,0.079592
271,0.079416
272,0.078953
273,0.078908
274,0.078474
275,0.078101
276,0.077703
277,0.07733
278,0.076805
279,0.076028
280,0.075384
281,0.074474
282,0.073442
283,0.07227
284,0.071289
285,0.069939
286,0.068517
287,0.067149
288,0.065606
289,0.06441
290,0.063257
291,0.062149
292,0.061034
293,0.059907
294,0.058698
295,0.057704
296,0.056782
297,0.055633
298,0.054816
299,0.053985
300,0.052942
301,0.052024
302,0.051308
303,0.050505
304,0.049863
305,0.049051
306,0.048341
307,0.047714
308,0.047089
309,0.046456
310,0.045859
311,0.045132
312,0.044521
313,0.044055
314,0.043309
315,0.042882
316,0.042565
317,0.041717
318,0.041322
319,0.040795
320,0.040252
321,0.039871
322,0.039111
323,0.038765
324,0.038213
325,0.037822
326,0.037293
327,0.036743
328,0.036168
329,0.0356
330,0.034678
331,0.034483
332,0.033579
333,0.033701
334,0.033539
335,0.03277
336,0.03223
337,0.032336
338,0.03156
339,0.031686
340,0.031156
341,0.030791
342,0.031433
343,0.030446
344,0.030267
345,0.029661
346,0.029752
347,0.029671
348,0.028813
349,0.028682
350,0.028418
351,0.029383
352,0.028148
353,0.028278
354,0.027117
355,0.027554
356,0.028327
357,0.027384
358,0.027327
359,0.027146
360,0.026583
361,0.026582
362,0.026208
363,0.026385
364,0.026235
365,0.025386
366,0.025484
367,0.024763
368,0.024862
369,0.025759
370,0.024648
371,0.024348
372,0.023926
373,0.023019
374,0.023366
375,0.022957
376,0.022414
377,0.021524
378,0.021972
379,0.021236
380,0.02135
381,0.020158
382,0.020522
383,0.019452
384,0.020069
385,0.019223
386,0.018842
387,0.019515
388,0.018692
389,0.017953
390,0.018562
391,0.017522
392,0.017755
393,0.017263
394,0.016994
395,0.017133
396,0.016473
397,0.016349
398,0.016939
399,0.015817
400,0.015264
401,0.015647
402,0.015178
403,0.015189
404,0.014998
405,0.015003
406,0.014501
407,0.014219
408,0.014185
409,0.014202
410,0.013503
411,0.013638
412,0.013573
413,0.012903
414,0.01304
415,0.012697
416,0.012439
417,0.012223
418,0.012165
419,0.012217
420,0.011572
421,0.012114
422,0.011693
423,0.011817
424,0.011579
425,0.011345
426,0.011254
427,0.010992
428,0.011178
429,0.010829
430,0.010589
431,0.010649
432,0.009647
433,0.010066
434,0.009778
435,0.009981
436,0.009532
437,0.00945
438,0.009604
439,0.00924
440,0.008989
441,0.009064
442,0.009086
443,0.008942
444,0.008881
445,0.008774
446,0.008634
447,0.008651
448,0.008536
449,0.008479
450,0.008205
451,0.008207
452,0.00842
453,0.008113
454,0.008157
455,0.008007
456,0.007919
457,0.007755
458,0.007774
459,0.007852
460,0.007687
461,0.007372
462,0.007382
463,0.007294
464,0.007615
465,0.007291
466,0.007224
467,0.006779
468,0.007014
469,0.00697
470,0.007154
471,0.007028
472,0.007124
473,0.006314
474,0.006978
475,0.006948
476,0.006773
477,0.006225
478,0.006409
479,0.006945
480,0.006559
481,0.00637
482,0.006638
483,0.006146
484,0.006763
485,0.006114
486,0.006314
487,0.00623
488,0.006437
489,0.00608
490,0.006192
491,0.006096
492,0.006169
493,0.0063
494,0.005632
495,0.005934
496,0.005846
497,0.005698
498,0.005995
499,0.005917
500,0.005603
501,0.005806
502,0.005457
503,0.005512
504,0.004913
505,0.005692
506,0.005279
507,0.005567
508,0.005394
509,0.005651
510,0.00558
511,0.004851
512,0.005801
513,0.005218
514,0.004623
515,0.00496
516,0.004669
517,0.004863
518,0.004612
519,0.004985
520,0.004864
521,0.004319
522,0.004671
523,0.004259
524,0.004682
525,0.004929
526,0.004625
527,0.004715
528,0.004502
529,0.00432
530,0.004379
531,0.004225
532,0.004498
533,0.004334
534,0.00448
535,0.00432
536,0.004344
537,0.00419
538,0.004574
539,0.004014
540,0.003892
541,0.00427
542,0.004295
543,0.004064
544,0.004194
545,0.003839
546,0.00428
547,0.003255
548,0.00426
549,0.003852
550,0.003603
551,0.004187
552,0.003994
553,0.0042
554,0.003268
555,0.004122
556,0.004098
557,0.003654
558,0.004027
559,0.003445
560,0.003528
561,0.004037
562,0.003713
563,0.003711
564,0.003742
565,0.003519
566,0.00336
567,0.003236
568,0.003159
569,0.003708
570,0.003468
571,0.003994
572,0.003783
573,0.003274
574,0.003119
575,0.003111
576,0.003352
577,0.003518
578,0.003004
579,0.003446
580,0.003249
581,0.003416
582,0.003223
583,0.003239
584,0.003361
585,0.002904
586,0.003243
587,0.003342
588,0.003816
589,0.003529
590,0.003105
591,0.002866
592,0.003278
593,0.003324
594,0.002674
595,0.003351
596,0.003388
597,0.002996
598,0.002498
599,0.002157
600,0.0019
601,0.00267
602,0.003213
603,0.00304
604,0.002587
605,0.00242
606,0.002452
607,0.002475
608,0.002284
609,0.002615
610,0.002794
611,0.002703
612,0.003083
613,0.003229
614,0.003088
615,0.003057
616,0.003155
617,0.003776
618,0.003455
619,0.004471
620,0.004923
621,0.004689
622,0.004659
623,0.005285
624,0.004034
625,0.006091
626,0.005763
627,0.005357
628,0.005081
629,0.004883
630,0.005194
631,0.003914
632,0.005222
633,0.004919
634,0.005405
635,0.004216
636,0.00489
637,0.004001
638,0.004165
639,0.004079
640,0.004673
641,0.004661
642,0.003335
643,0.004122
644,0.004221
645,0.002257
646,0.002547
647,0.002708
648,0.003113
649,0.002721
650,0.004109
651,0.002923
652,0.002917
653,0.002505
654,0.002339
655,0.001707
656,0.002894
657,0.002671
658,0.003293
659,0.00269
660,0.003203
661,0.002728
662,0.002295
663,0.001587
664,0.001984
665,0.002708
666,0.002207
667,0.003515
668,0.002498
669,0.00281
670,0.002241
671,0.00296
672,0.003171
673,0.002905
674,0.001979
675,0.001941
676,0.002634
677,0.002466
678,0.002533
679,0.002556
680,0.002447
681,0.002785
682,0.002278
683,0.002834
684,0.002722
685,0.002991
686,0.003268
687,0.002958
688,0.002536
689,0.002605
690,0.002461
691,0.002277
692,0.002531
693,0.0031
694,0.002346
695,0.001632
696,0.003088
697,0.002413
698,0.0021
699,0.00217
700,0.002563
701,0.002525
702,0.002708
703,0.003304
704,0.001844
705,0.002475
706,0.001641
707,0.003816
708,0.003657
709,0.002464
710,0.002555
711,0.001732
712,0.002788
713,0.002703
714,0.00137
715,0.002478
716,0.002565
717,0.002619
718,0.002255
719,0.003426
720,0.002251
721,0.001368
722,0.002541
723,0.002037
724,0.001678
725,0.002379
726,0.001729
727,0.003021
728,0.001646
729,0.001774
730,0.002421
731,0.002399
732,0.002579
733,0.002394
734,0.002929
735,0.000922
736,0.001471
737,0.003118
738,0.002521
739,0.002701
740,0.002208
741,0.00359
742,0.004645
743,0.001715
744,0.001801
745,0.001643
746,0.002542
747,0.003621
748,0.002838
749,0.003713
750,0.002332
751,0.001439
752,0.002302
753,0.005015
754,0.002557
755,0.001688
756,0.0037
757,0.003084
758,0.000844
759,0.002593
760,0.000485
761,0.000849
762,0.003208
763,0.003268
764,0.002286
765,0.002936
766,0.002087
767,0.003785
768,0.002366
769,0.002148
770,0.00326
771,0.001402
772,0.00357
773,0.000961
774,0.003399
775,0.001854
776,0.002567
777,0.001842
778,0.002653
779,0.003546
780,0.00028
781,0.00321
782,0.002799
783,0.00129
784,0.004503
785,0.00357
786,0.003624
787,0.001276
788,0.003638
789,0.001409
790,0.002928
791,0.002742
792,0.004209
793,0.002299
794,0.0023
795,0.002901
796,0.001827
797,0.001758
798,0.003002
799,0.002243
800,0.003409
