230,0.098172
231,0.082164
232,0.068131
233,0.055858
234,0.046004
235,0.036861
236,0.029895
237,0.024895
238,0.019618
239,0.015858
240,0.012843
241,0.009949
242,0.0079
243,0.006453
244,0.005222
245,0.004308
246,0.003393
247,0.002653
248,0.002259
249,0.001981
250,0.001631
251,0.001421
252,0.001265
253,0.001041
254,0.001017
255,0.000932
256,0.000903
257,0.00073
258,0.00077
259,0.000758
260,0.000623
261,0.000708
262,0.000747
263,0.000718
264,0.000628
265,0.000637
266,0.000758
267,0.000706
268,0.000799
269,0.000734
270,0.000804
271,0.000884
272,0.000639
273,0.000907
274,0.000879
275,0.000833
276,0.000769
277,0.000977
278,0.000839
279,0.000966
280,0.001029
281,0.000947
282,0.001005
283,0.001086
284,0.001145
285,0.001061
286,0.001153
287,0.001172
288,0.001068
289,0.001065
290,0.001056
291,0.001156
292,0.001215
293,0.001217
294,0.001325
295,0.001237
296,0.00137
297,0.00133
298,0.001328
299,0.001444
300,0.001449
301,0.001311
302,0.001246
303,0.001422
304,0.001446
305,0.001432
306,0.001389
307,0.001355
308,0.001323
309,0.001535
310,0.001198
311,0.001234
312,0.00125
313,0.001135
314,0.001155
315,0.00123
316,0.001245
317,0.000928
318,0.001052
319,0.001116
320,0.001073
321,0.000932
322,0.000695
323,0.000838
324,0.000715
325,0.000799
326,0.000842
327,0.000831
328,0.000545
329,0.000739
330,0.000942
331,0.000787
332,0.000068
333,0.000281
334,0.000851
335,0.000699
336,0.000163
337,0.000805
338,0.00003
339,0.000724
340,0.000858
341,0.00084
342,0.001131
343,0.000612
344,0.000523
345,0.000164
346,0.000155
347,0.000218
348,0.001172
349,0.000098
350,-0.000087
351,0.001535
352,0.000706
353,0.000922
354,0.000691
355,0.000418
356,0.000957
357,0.000457
358,0.000641
359,0.000236
360,0.000687
361,0.000427
362,0.00018
363,0.000721
364,0.00038
365,0.000365
366,0.000479
367,0.000518
368,0.00003
369,0.000662
370,0.001146
371,0.001044
372,0.000706
373,0.000462
374,0.001043
375,0.0007
376,0.000776
377,-0.000036
378,0.000396
379,0.000049
380,-0.000141
381,0.000077
382,0.000628
383,0.000001
384,0.000246
385,0.000417
386,0.000104
387,0.000491
388,0.000109
389,0.000363
390,0.000372
391,-0.000095
392,0.00018
393,-0.000061
394,0.000429
395,0.000544
396,-0.000038
397,-0.000212
398,0.000841
399,-0.000015
400,0.00017
401,0.000451
402,-0.000099
403,0.000116
404,0.000048
405,0.000611
406,0.000421
407,0.000322
408,0.00052
409,0.000276
410,0.000374
411,-0.000232
412,0.000592
413,0.000604
414,0.00049
415,0.000475
416,0.000146
417,0.000143
418,-0.000015
419,0.00062
420,0.000291
421,0.000561
422,0.000402
423,0.000784
424,0.000456
425,0.000418
426,0.000327
427,0.000358
428,0.00036
429,0.000314
430,0.00034
431,0.000478
432,-0.000059
433,0.000208
434,0.000119
435,0.000473
436,0.000124
437,0.00016
438,0.000283
439,0.000177
440,0.000044
441,0.000072
442,0.000237
443,-0.000003
444,0.000208
445,0.000268
446,0.000327
447,0.00029
448,0.000175
449,0.000238
450,0.000214
451,0.000152
452,0.000364
453,0.000195
454,0.000553
455,0.000116
456,0.000076
457,0.000092
458,0.000295
459,0.000218
460,0.000413
461,0.000136
462,0.000216
463,0.000401
464,0.000302
465,0.000237
466,0.000398
467,0.000225
468,0.00015
469,0.000169
470,-0.000163
471,0.000535
472,0.000201
473,-0.000218
474,0.000008
475,0.000293
476,0.000706
477,0.000185
478,0.000362
479,0.000643
480,0.000173
481,0.000459
482,0.000514
483,0.000093
484,0.000366
485,0.000151
486,0.000211
487,0.000199
488,0.000373
489,0.00023
490,-0.000039
491,0.000231
492,0.000189
493,0.000221
494,0.000121
495,0.000118
496,0.000174
497,0.000064
498,0.00014
499,0.000302
500,0.00015
501,0.000099
502,0.000124
503,0.000073
504,-0.000393
505,0.000414
506,-0.000027
507,0.0002
508,0.000485
509,0.000922
510,0.000331
511,0.000652
512,0.000316
513,0.000393
514,-0.000524
515,0.000231
516,-0.000127
517,0.000559
518,0.000026
519,0.000254
520,0.000033
521,-0.000337
522,-0.00008
523,-0.000345
524,0.000254
525,0.000309
526,0.000182
527,0.000301
528,0.000145
529,0.000157
530,-0.000035
531,0.00027
532,0.00034
533,0.000297
534,-0.00001
535,0.000041
536,0.000166
537,-0.000002
538,0.000403
539,-0.000181
540,-0.00006
541,0.000115
542,0.000333
543,0.000212
544,0.000018
545,0.000441
546,0.000474
547,-0.000353
548,0.000498
549,-0.000364
550,0.000138
551,0.000169
552,0.000021
553,0.000094
554,-0.000299
555,0.00053
556,-0.000188
557,-0.000063
558,0.000044
559,0.000078
560,0.000186
561,0.000703
562,0.000494
563,-0.000041
564,0.000134
565,0.000333
566,-0.000129
567,-0.000191
568,-0.000098
569,0.000345
570,0.000184
571,-0.000174
572,0.000822
573,0.00025
574,-0.000479
575,-0.00028
576,-0.000285
577,0.000474
578,-0.000439
579,-0.000531
580,0.000003
581,-0.000022
582,-0.000116
583,0.000779
584,-0.000659
585,0.00037
586,0.00013
587,-0.000204
588,0.000298
589,0.000169
590,-0.000384
591,-0.00036
592,-0.000653
593,0.000116
594,-0.000424
595,0.000342
596,-0.000135
597,-0.000324
598,-0.000695
599,-0.001158
600,-0.000349
601,-0.000511
602,-0.000009
603,-0.000372
604,-0.00079
605,-0.00083
606,-0.000603
607,-0.000174
608,-0.000618
609,-0.000601
610,-0.000135
611,0.00007
612,-0.000283
613,-0.000766
614,-0.000488
615,-0.000575
616,0.000167
617,-0.000348
618,-0.000767
619,0.000536
620,0.000596
621,0.00013
622,0.000692
623,-0.000364
624,-0.000996
625,0.000635
626,0.001123
627,0.000741
628,0.000098
629,-0.00043
630,-0.000323
631,0.00004
632,0.001209
633,0.000468
634,-0.000249
635,-0.000275
636,0.001047
637,-0.000195
638,-0.000607
639,0.000087
640,-0.000086
641,-0.000364
642,-0.000429
643,0.00027
644,0.000421
645,0.000143
646,0.000541
647,-0.000547
648,0.000515
649,-0.000112
650,0.0009
651,0.000602
652,0.000456
653,0.000682
654,0.000258
655,0.000091
656,-0.000152
657,-0.000726
658,-0.00023
659,0.000069
660,-0.000654
661,0.001252
662,0.000121
663,-0.000678
664,-0.000015
665,0.000013
666,0.00086
667,0.000235
668,0.001129
669,0.000302
670,-0.000805
671,-0.000322
672,0.001085
673,0.000353
674,-0.000116
675,0.000458
676,0.000345
677,0.00069
678,0.000406
679,-0.00028
680,-0.000132
681,-0.000145
682,0.000303
683,0.000519
684,0.000158
685,0.000466
686,0.000487
687,0.00065
688,0.000329
689,0.000398
690,0.000246
691,-0.000002
692,-0.000238
693,0.001375
694,0.000162
695,-0.000264
696,0.000593
697,0.00048
698,0.000172
699,0.000351
700,0.000875
701,0.000243
702,0.000058
703,0.001213
704,-0.000319
705,0.000009
706,-0.000111
707,0.000992
708,0.00122
709,0.000504
710,0.000346
711,-0.000836
712,0.000083
713,0.000504
714,-0.000147
715,-0.000376
716,0.000186
717,0.001737
718,-0.000032
719,0.000597
720,0.0004
721,0.000479
722,0.000068
723,-0.00013
724,-0.001042
725,0.000401
726,-0.000547
727,-0.000569
728,0.000212
729,-0.000407
730,-0.001
731,-0.000345
732,0.00073
733,0.001418
734,-0.000099
735,0.000013
736,0.000215
737,0.000059
738,0.001417
739,0.00075
740,0.000691
741,0.001246
742,-0.000082
743,-0.000676
744,-0.000553
745,0.000093
746,0.000842
747,-0.000775
748,0.000686
749,0.001167
750,-0.000157
751,-0.000843
752,-0.000574
753,0.000698
754,0.000605
755,0.000809
756,0.001306
757,0.00005
758,-0.000512
759,-0.000956
760,0.001216
761,0.000417
762,-0.000728
763,0.000819
764,0.000703
765,0.000688
766,0.000146
767,0.00149
768,-0.000308
769,0.00093
770,0.002094
771,-0.001568
772,-0.000155
773,-0.000776
774,-0.000265
775,-0.000384
776,-0.000385
777,-0.000443
778,0.000234
779,0.00231
780,-0.000607
781,0.000295
782,0.000362
783,-0.001111
784,0.003706
785,0.003045
786,0.001843
787,0.000045
788,-0.000725
789,-0.00092
790,-0.002302
791,-0.001398
792,0.00004
793,0.000407
794,0.001464
795,-0.000423
796,0.000465
797,-0.000875
798,0.001924
799,-0.001457
800,0.000462
