230,0.04134
231,0.040675
232,0.039944
233,0.039327
234,0.038854
235,0.038254
236,0.037759
237,0.037568
238,0.037156
239,0.037011
240,0.036771
241,0.036632
242,0.03656
243,0.03648
244,0.036424
245,0.036424
246,0.036362
247,0.036456
248,0.036479
249,0.036465
250,0.036505
251,0.036445
252,0.036219
253,0.036158
254,0.036029
255,0.035532
256,0.035263
257,0.034707
258,0.034218
259,0.033396
260,0.03288
261,0.032272
262,0.031702
263,0.030959
264,0.030168
265,0.029488
266,0.028902
267,0.028265
268,0.027423
269,0.027094
270,0.026442
271,0.025809
272,0.025268
273,0.024769
274,0.024169
275,0.02368
276,0.023002
277,0.022463
278,0.021845
279,0.021571
280,0.021026
281,0.020702
282,0.020302
283,0.019868
284,0.019542
285,0.019143
286,0.018747
287,0.018433
288,0.018103
289,0.017785
290,0.017597
291,0.01723
292,0.017015
293,0.016576
294,0.016342
295,0.016145
296,0.01592
297,0.015644
298,0.01543
299,0.015119
300,0.01489
301,0.014719
302,0.014551
303,0.01429
304,0.014031
305,0.013711
306,0.013498
307,0.013379
308,0.013112
309,0.01296
310,0.01266
311,0.01275
312,0.012428
313,0.012146
314,0.011941
315,0.01179
316,0.01182
317,0.011262
318,0.011078
319,0.011158
320,0.011062
321,0.010815
322,0.010679
323,0.010566
324,0.010243
325,0.010178
326,0.010017
327,0.010227
328,0.01019
329,0.00976
330,0.009597
331,0.009495
332,0.009311
333,0.009317
334,0.009473
335,0.008979
336,0.008829
337,0.009209
338,0.009072
339,0.009063
340,0.008601
341,0.008998
342,0.008826
343,0.008638
344,0.008188
345,0.008356
346,0.00903
347,0.008259
348,0.008323
349,0.008125
350,0.008695
351,0.007818
352,0.008235
353,0.008433
354,0.008941
355,0.008224
356,0.008317
357,0.00861
358,0.00845
359,0.007843
360,0.008408
361,0.0081
362,0.008265
363,0.008235
364,0.0082
365,0.008244
366,0.008151
367,0.008228
368,0.008275
369,0.00931
370,0.007912
371,0.007786
372,0.007916
373,0.007859
374,0.00817
375,0.007747
376,0.007829
377,0.007439
378,0.007745
379,0.007133
380,0.007273
381,0.007449
382,0.007698
383,0.007304
384,0.006914
385,0.007096
386,0.006527
387,0.006428
388,0.006934
389,0.006337
390,0.005924
391,0.005232
392,0.005617
393,0.005569
394,0.005922
395,0.005137
396,0.00561
397,0.005022
398,0.00505
399,0.0048
400,0.004994
401,0.004829
402,0.005042
403,0.004429
404,0.00478
405,0.004737
406,0.004322
407,0.004482
408,0.004561
409,0.004909
410,0.004606
411,0.004019
412,0.003931
413,0.004097
414,0.004097
415,0.003952
416,0.004185
417,0.003874
418,0.004177
419,0.004002
420,0.004045
421,0.003899
422,0.003612
423,0.003545
424,0.003724
425,0.003544
426,0.0037
427,0.003585
428,0.003667
429,0.00347
430,0.003855
431,0.003441
432,0.003912
433,0.003666
434,0.003786
435,0.003899
436,0.003685
437,0.003932
438,0.003534
439,0.003742
440,0.003573
441,0.003565
442,0.003529
443,0.003649
444,0.003267
445,0.003692
446,0.003628
447,0.003498
448,0.003335
449,0.003637
450,0.00326
451,0.003384
452,0.003364
453,0.003347
454,0.003141
455,0.003445
456,0.003229
457,0.003342
458,0.003436
459,0.003138
460,0.003247
461,0.00299
462,0.003339
463,0.002969
464,0.002923
465,0.002652
466,0.003204
467,0.003213
468,0.002941
469,0.002942
470,0.00313
471,0.003102
472,0.00324
473,0.002929
474,0.003372
475,0.002664
476,0.002596
477,0.0027
478,0.002729
479,0.002513
480,0.002815
481,0.002604
482,0.002773
483,0.002786
484,0.002447
485,0.002746
486,0.00262
487,0.002626
488,0.002649
489,0.002593
490,0.002806
491,0.002633
492,0.002691
493,0.002428
494,0.002432
495,0.002426
496,0.002823
497,0.002467
498,0.001923
499,0.002563
500,0.002304
501,0.002482
502,0.002455
503,0.002491
504,0.001892
505,0.002361
506,0.00267
507,0.002182
508,0.002607
509,0.002049
510,0.002255
511,0.002138
512,0.002426
513,0.002102
514,0.002178
515,0.002217
516,0.002683
517,0.00242
518,0.002335
519,0.002472
520,0.002521
521,0.001958
522,0.002102
523,0.002272
524,0.002232
525,0.002219
526,0.002517
527,0.002177
528,0.00244
529,0.002543
530,0.002411
531,0.002225
532,0.002678
533,0.002501
534,0.002607
535,0.002497
536,0.002719
537,0.002689
538,0.002542
539,0.002764
540,0.00251
541,0.002781
542,0.00265
543,0.002481
544,0.0024
545,0.002088
546,0.002321
547,0.00255
548,0.002462
549,0.002631
550,0.00241
551,0.002636
552,0.002339
553,0.002746
554,0.002612
555,0.002753
556,0.002285
557,0.002194
558,0.002318
559,0.00241
560,0.002474
561,0.001601
562,0.002173
563,0.001956
564,0.002161
565,0.002091
566,0.00209
567,0.002275
568,0.001916
569,0.001928
570,0.002119
571,0.001697
572,0.001694
573,0.001908
574,0.001854
575,0.002013
576,0.002068
577,0.002131
578,0.001777
579,0.001801
580,0.001497
581,0.001909
582,0.00258
583,0.002125
584,0.002032
585,0.001603
586,0.001031
587,0.002123
588,0.001538
589,0.001433
590,0.001956
591,0.001981
592,0.001879
593,0.002045
594,0.001734
595,0.001575
596,0.002085
597,0.002131
598,0.001984
599,0.002189
600,0.001758
601,0.002005
602,0.002225
603,0.002125
604,0.001808
605,0.002353
606,0.001419
607,0.002227
608,0.002269
609,0.002663
610,0.001605
611,0.001693
612,0.002193
613,0.001736
614,0.00176
615,0.001809
616,0.002715
617,0.001993
618,0.002384
619,0.001189
620,0.001959
621,0.00155
622,0.001468
623,0.002363
624,0.001871
625,0.00134
626,0.001656
627,0.001495
628,0.001256
629,0.001555
630,0.001587
631,0.001772
632,0.001778
633,0.002257
634,0.001858
635,0.002178
636,0.00156
637,0.00269
638,0.002538
639,0.001888
640,0.001117
641,0.001334
642,0.001565
643,0.002493
644,0.001381
645,0.002239
646,0.001385
647,0.001267
648,0.001635
649,0.001571
650,0.002038
651,0.00205
652,0.002251
653,0.001856
654,0.001989
655,0.002783
656,0.001475
657,0.002621
658,0.00092
659,0.001743
660,0.001482
661,0.001637
662,0.001042
663,0.002212
664,0.002258
665,0.001451
666,0.002041
667,0.001649
668,0.001442
669,0.002455
670,0.001624
671,0.001305
672,0.001677
673,0.002158
674,0.001808
675,0.001848
676,0.001734
677,0.001711
678,0.00162
679,0.001309
680,0.001929
681,0.002145
682,0.001886
683,0.001612
684,0.002033
685,0.002299
686,0.000989
687,0.002644
688,0.002219
689,0.00223
690,0.001541
691,0.002111
692,0.001613
693,0.001721
694,0.001165
695,0.001605
696,0.002256
697,0.00154
698,0.002084
699,0.002341
700,0.001849
701,0.002158
702,0.000851
703,0.002272
704,0.0023
705,0.002432
706,0.00179
707,0.00201
708,0.001686
709,0.001809
710,0.001587
711,0.001897
712,0.00175
713,0.001646
714,0.002865
715,0.001355
716,0.000908
717,0.000109
718,0.001811
719,0.001375
720,0.002338
721,0.00192
722,0.001896
723,0.002479
724,0.001475
725,0.001459
726,0.000362
727,0.002235
728,0.002989
729,0.002255
730,0.002825
731,0.000946
732,0.002542
733,0.001258
734,0.002775
735,0.000789
736,0.000681
737,0.001734
738,0.001673
739,0.002241
740,0.001588
741,0.00062
742,0.001773
743,0.001953
744,0.002599
745,0.001118
746,0.0019
747,0.000742
748,0.002198
749,0.001861
750,0.002106
751,0.000907
752,0.002793
753,0.002098
754,-0.000513
755,0.001404
756,0.001794
757,0.001067
758,0.002497
759,0.001004
760,0.000398
761,0.000685
762,0.000514
763,0.002098
764,0.002108
765,0.001508
766,0.002072
767,0.001751
768,0.002178
769,0.002385
770,0.002451
771,0.001959
772,0.001815
773,0.000958
774,0.003114
775,0.003092
776,0.002124
777,0.000487
778,0.002129
779,0.001142
780,0.001658
781,0.002234
782,0.002321
783,0.002997
784,-0.000198
785,0.002068
786,0.002432
787,0.001269
788,0.002373
789,0.002384
790,0.000944
791,0.002164
792,0.0015
793,0.001167
794,0.003693
795,0.002953
796,0.002255
797,0.002845
798,0.00152
799,0.001994
800,0.001707
