230,0.102462
231,0.085883
232,0.071423
233,0.058503
234,0.048123
235,0.038646
236,0.031306
237,0.026016
238,0.020579
239,0.016662
240,0.013562
241,0.010553
242,0.008467
243,0.006966
244,0.005584
245,0.004657
246,0.003727
247,0.002946
248,0.0025
249,0.002182
250,0.001804
251,0.001577
252,0.001368
253,0.001136
254,0.001
255,0.000931
256,0.000859
257,0.000841
258,0.000801
259,0.000795
260,0.000672
261,0.000723
262,0.00081
263,0.00079
264,0.000695
265,0.000634
266,0.000789
267,0.000806
268,0.000835
269,0.000893
270,0.000763
271,0.000812
272,0.000606
273,0.000821
274,0.000864
275,0.000809
276,0.00094
277,0.000928
278,0.000817
279,0.000882
280,0.001065
281,0.000805
282,0.000912
283,0.000963
284,0.001102
285,0.000878
286,0.001038
287,0.001003
288,0.001058
289,0.000991
290,0.000951
291,0.001046
292,0.001107
293,0.001096
294,0.001225
295,0.001093
296,0.001197
297,0.00111
298,0.001194
299,0.001287
300,0.001243
301,0.001079
302,0.001204
303,0.001224
304,0.001328
305,0.001207
306,0.001191
307,0.001225
308,0.001186
309,0.001298
310,0.001151
311,0.001062
312,0.001014
313,0.000922
314,0.000941
315,0.000828
316,0.001029
317,0.000636
318,0.000778
319,0.000724
320,0.000686
321,0.000624
322,0.000434
323,0.000523
324,0.000413
325,0.000636
326,0.000615
327,0.000546
328,0.000221
329,0.000515
330,0.000457
331,-0.000138
332,0.000135
333,0.000181
334,0.000043
335,-0.000087
336,-0.000035
337,0.000265
338,0.000121
339,0.000834
340,0.000569
341,-0.000719
342,0.000543
343,0.000631
344,0.00037
345,-0.000166
346,-0.000091
347,0.000241
348,0.000016
349,-0.000474
350,-0.000198
351,0.001026
352,-0.000297
353,0.000245
354,-0.000025
355,0.000556
356,0.000502
357,-0.000019
358,0.00053
359,0.000154
360,0.000343
361,0.000393
362,-0.000073
363,0.000285
364,-0.000082
365,0.000105
366,0.000574
367,-0.000487
368,-0.000196
369,0.000536
370,0.000323
371,0.000516
372,0.000087
373,0.00006
374,-0.000654
375,0.000442
376,0.0001
377,0.000173
378,0.000041
379,0.000232
380,-0.000072
381,-0.000724
382,-0.000092
383,-0.000413
384,0.000417
385,0.0001
386,-0.000061
387,0.000185
388,0.000034
389,-0.000122
390,0.00036
391,-0.000168
392,-0.000038
393,-0.000387
394,0.000266
395,0.000151
396,0.000026
397,-0.000474
398,0.000479
399,-0.000368
400,-0.000137
401,-0.00021
402,-0.000215
403,-0.000086
404,-0.00014
405,0.000068
406,0.000441
407,0.000165
408,0.000252
409,-0.000029
410,-0.0003
411,0.000006
412,0.000206
413,0.000156
414,0.000056
415,0.000138
416,-0.00013
417,-0.000051
418,-0.000049
419,0.000133
420,-0.000274
421,0.000136
422,-0.000186
423,0.000196
424,0.000142
425,0.00032
426,0.000044
427,0.000066
428,0.000167
429,-0.000049
430,0.000162
431,-0.000093
432,-0.000465
433,-0.000123
434,-0.000179
435,-0.000051
436,-0.000083
437,-0.000087
438,0.000117
439,0.000005
440,-0.00008
441,0.000107
442,0.000149
443,-0.000103
444,0.00021
445,-0.000038
446,0.000011
447,-0.000021
448,-0.000044
449,0.000108
450,-0.00002
451,-0.000125
452,0.000097
453,0.000109
454,0.000376
455,-0.000274
456,0.000193
457,0.000171
458,0.000302
459,0.000254
460,-0.000019
461,0.000117
462,-0.000059
463,0.000106
464,0.000172
465,-0.000027
466,-0.000106
467,-0.000075
468,0.000188
469,-0.00003
470,0.000148
471,0.000335
472,0.000269
473,-0.000504
474,-0.000001
475,0.000274
476,0.000416
477,0.000092
478,-0.000168
479,0.000388
480,-0.000426
481,0.000219
482,0.00022
483,0.000029
484,0.000445
485,-0.000001
486,0.000184
487,-0.000077
488,0.000033
489,-0.000058
490,-0.000124
491,-0.000083
492,0.000239
493,-0.000014
494,0.00018
495,-0.000019
496,-0.00008
497,0.000331
498,0.000171
499,0.000019
500,0.00002
501,0.000218
502,0.000085
503,0.000141
504,-0.0007
505,-0.000256
506,0.000093
507,-0.000065
508,-0.000032
509,0.000474
510,0.000461
511,-0.00014
512,0.00033
513,-0.000057
514,-0.000685
515,0.000033
516,-0.000348
517,0.000372
518,-0.000216
519,0.000087
520,-0.000014
521,-0.000414
522,-0.000348
523,-0.000175
524,0.000063
525,0.000227
526,0.000181
527,0.000113
528,0.000291
529,0.000184
530,0.000059
531,0.000131
532,0.00019
533,0.000278
534,-0.000177
535,0.000184
536,0.000009
537,0.000105
538,0.000187
539,-0.000079
540,-0.000023
541,0.00013
542,0.000204
543,0.000216
544,0.000182
545,0.000238
546,0.000218
547,-0.000406
548,0.000267
549,0.000067
550,-0.0005
551,0.000613
552,-0.000039
553,0.000409
554,-0.000126
555,0.00074
556,0.000225
557,0.000209
558,-0.000014
559,-0.000386
560,-0.000294
561,0.000577
562,0.000193
563,0.000173
564,0.000285
565,-0.000292
566,-0.000466
567,-0.000355
568,-0.000176
569,0.000429
570,0.000009
571,-0.000136
572,0.000232
573,0.00002
574,-0.000115
575,-0.000269
576,0.000041
577,0.000362
578,-0.000077
579,-0.000242
580,-0.000128
581,-0.000134
582,-0.00014
583,0.000617
584,-0.000493
585,0.000466
586,-0.000047
587,-0.000124
588,-0.000119
589,0.000204
590,-0.000097
591,-0.000008
592,-0.000327
593,-0.000449
594,-0.000253
595,-0.000004
596,-0.000216
597,-0.000051
598,-0.000536
599,-0.001109
600,-0.000636
601,-0.000755
602,0.000162
603,-0.000112
604,-0.000946
605,-0.001011
606,-0.00102
607,-0.000317
608,-0.000029
609,-0.000456
610,-0.000471
611,-0.000056
612,0.000333
613,-0.00069
614,-0.000415
615,-0.000265
616,-0.000019
617,0.000379
618,-0.000364
619,0.000226
620,0.000803
621,-0.000532
622,0.000999
623,-0.000361
624,-0.000146
625,-0.000305
626,0.000481
627,0.0005
628,0.000501
629,-0.000758
630,0.000077
631,-0.001284
632,0.000736
633,-0.000274
634,0.000181
635,0.000019
636,0.000829
637,-0.000214
638,0.00046
639,0.000416
640,0.000631
641,-0.00022
642,0.000549
643,0.000639
644,0.000409
645,-0.00012
646,0.00007
647,0.000126
648,0.000147
649,-0.000764
650,0.001224
651,-0.000051
652,0.000686
653,0.00037
654,0.000302
655,-0.001766
656,-0.0003
657,-0.000305
658,0.000566
659,0.000411
660,0.000647
661,0.00036
662,-0.000219
663,0.000349
664,-0.000731
665,-0.000359
666,0.000541
667,0.000569
668,0.000614
669,0.000465
670,-0.000285
671,-0.000213
672,0.001431
673,0.000042
674,-0.000644
675,-0.000395
676,0.000262
677,0.000176
678,-0.000131
679,0.000074
680,-0.00015
681,-0.000006
682,0.000008
683,0.000311
684,-0.00012
685,0.000993
686,0.001089
687,0.001038
688,0.000366
689,0.000592
690,0.00036
691,0.000893
692,0.00013
693,0.000388
694,0.000221
695,-0.000109
696,0.000653
697,0.000413
698,0.000125
699,0.000786
700,0.000417
701,-0.000087
702,0.000453
703,0.000777
704,0.000709
705,0.000379
706,-0.000582
707,0.000862
708,0.000275
709,-0.000842
710,0.000636
711,-0.000776
712,-0.000316
713,0.000126
714,-0.000699
715,-0.000085
716,0.000123
717,0.000733
718,0.000455
719,0.001256
720,0.000899
721,0.001384
722,0.000027
723,0.000426
724,-0.000067
725,-0.00016
726,-0.00077
727,0.000795
728,0.00055
729,0.000119
730,0.00002
731,-0.000472
732,0.000182
733,0.001136
734,-0.000914
735,-0.000832
736,-0.000969
737,-0.000406
738,0.001786
739,0.000349
740,0.000617
741,0.000752
742,0.000771
743,-0.001219
744,0.000616
745,-0.000085
746,0.000337
747,0.001214
748,0.000181
749,-0.000051
750,-0.000411
751,-0.000464
752,0.001684
753,0.001416
754,-0.000304
755,-0.000615
756,0.001989
757,-0.000018
758,-0.001735
759,-0.001181
760,-0.001667
761,-0.001387
762,-0.000373
763,0.000391
764,-0.000109
765,-0.000357
766,0.000074
767,0.000628
768,-0.000429
769,0.001153
770,0.002468
771,-0.00285
772,0.001057
773,-0.000498
774,-0.000856
775,-0.001068
776,-0.000082
777,-0.001068
778,-0.001083
779,0.002751
780,0.000433
781,-0.000303
782,-0.000517
783,-0.001136
784,0.000913
785,-0.000348
786,-0.000024
787,-0.002122
788,-0.000036
789,-0.000359
790,-0.000963
791,-0.000096
792,0.000495
793,-0.000453
794,-0.000164
795,-0.000477
796,0.000696
797,-0.001102
798,0.001851
799,-0.001847
800,0.002106
