230,0.096112
231,0.093492
232,0.091007
233,0.088611
234,0.086358
235,0.083904
236,0.081605
237,0.080057
238,0.077736
239,0.075919
240,0.074146
241,0.072239
242,0.070547
243,0.069191
244,0.06754
245,0.066139
246,0.064689
247,0.063155
248,0.062071
249,0.060968
250,0.059607
251,0.058535
252,0.057346
253,0.056012
254,0.055115
255,0.053955
256,0.052705
257,0.05158
258,0.050489
259,0.049092
260,0.047729
261,0.046826
262,0.045615
263,0.044431
264,0.043064
265,0.041798
266,0.040711
267,0.03961
268,0.03831
269,0.037368
270,0.036048
271,0.035071
272,0.034018
273,0.033215
274,0.03236
275,0.031517
276,0.030651
277,0.029921
278,0.029178
279,0.028433
280,0.027796
281,0.027061
282,0.026364
283,0.025822
284,0.025347
285,0.024788
286,0.024296
287,0.023778
288,0.023275
289,0.022822
290,0.022454
291,0.022191
292,0.021723
293,0.021358
294,0.021019
295,0.020718
296,0.020399
297,0.019898
298,0.019598
299,0.019185
300,0.018723
301,0.018407
302,0.018027
303,0.017576
304,0.017334
305,0.016963
306,0.016612
307,0.016286
308,0.01601
309,0.015658
310,0.015189
311,0.014859
312,0.014532
313,0.014416
314,0.014011
315,0.013653
316,0.013537
317,0.013093
318,0.013185
319,0.012792
320,0.012394
321,0.012392
322,0.01174
323,0.011697
324,0.011581
325,0.011526
326,0.011312
327,0.011249
328,0.010608
329,0.010637
330,0.010361
331,0.010051
332,0.009834
333,0.009458
334,0.010179
335,0.008761
336,0.008895
337,0.009542
338,0.008482
339,0.008682
340,0.008107
341,0.008293
342,0.008476
343,0.008046
344,0.008059
345,0.007434
346,0.007647
347,0.007477
348,0.007409
349,0.007108
350,0.006612
351,0.007817
352,0.006721
353,0.006661
354,0.00658
355,0.006668
356,0.006809
357,0.006393
358,0.006363
359,0.00611
360,0.006251
361,0.005724
362,0.005616
363,0.005784
364,0.005784
365,0.005254
366,0.005511
367,0.005085
368,0.005087
369,0.005562
370,0.005078
371,0.005142
372,0.005251
373,0.005356
374,0.004803
375,0.005209
376,0.004514
377,0.003757
378,0.004117
379,0.004528
380,0.003851
381,0.003525
382,0.003892
383,0.003606
384,0.003888
385,0.003613
386,0.003393
387,0.003698
388,0.00373
389,0.003129
390,0.003522
391,0.002764
392,0.003283
393,0.002788
394,0.00294
395,0.003054
396,0.002906
397,0.002296
398,0.003517
399,0.002556
400,0.002527
401,0.002296
402,0.002901
403,0.002834
404,0.002646
405,0.00271
406,0.002606
407,0.002508
408,0.002772
409,0.002372
410,0.002443
411,0.002377
412,0.002586
413,0.002038
414,0.002581
415,0.002275
416,0.002085
417,0.001763
418,0.001863
419,0.002277
420,0.002013
421,0.002218
422,0.0018
423,0.001916
424,0.001985
425,0.001977
426,0.001608
427,0.001903
428,0.001883
429,0.001734
430,0.001749
431,0.001613
432,0.001439
433,0.001629
434,0.001552
435,0.001623
436,0.001361
437,0.00146
438,0.001801
439,0.001461
440,0.001272
441,0.001649
442,0.001628
443,0.001492
444,0.001564
445,0.001404
446,0.00146
447,0.001363
448,0.001497
449,0.001377
450,0.001267
451,0.001378
452,0.00124
453,0.001477
454,0.001432
455,0.001233
456,0.001105
457,0.001047
458,0.00126
459,0.001606
460,0.001228
461,0.000789
462,0.001127
463,0.001189
464,0.001297
465,0.000997
466,0.00108
467,0.001325
468,0.001129
469,0.000969
470,0.000983
471,0.00119
472,0.001289
473,0.000777
474,0.00103
475,0.001186
476,0.001303
477,0.000844
478,0.000931
479,0.001409
480,0.001134
481,0.001185
482,0.001144
483,0.001019
484,0.001463
485,0.000879
486,0.000897
487,0.001141
488,0.001018
489,0.001031
490,0.000815
491,0.000984
492,0.001117
493,0.000981
494,0.000729
495,0.001009
496,0.00089
497,0.000782
498,0.00115
499,0.001284
500,0.000922
501,0.000855
502,0.000633
503,0.00099
504,-0.000037
505,0.001176
506,0.000759
507,0.000922
508,0.001364
509,0.001375
510,0.001336
511,0.000957
512,0.000933
513,0.001197
514,0.000278
515,0.000636
516,0.000486
517,0.000708
518,0.000679
519,0.000921
520,0.000739
521,0.000337
522,0.000634
523,0.000408
524,0.000948
525,0.001184
526,0.000854
527,0.000959
528,0.000746
529,0.00069
530,0.000911
531,0.000803
532,0.000686
533,0.00082
534,0.000585
535,0.000708
536,0.000653
537,0.000696
538,0.000928
539,0.000647
540,0.00052
541,0.000669
542,0.000786
543,0.000638
544,0.000682
545,0.000597
546,0.001038
547,0.000016
548,0.000879
549,0.001015
550,0.000513
551,0.000654
552,0.00099
553,0.000957
554,0.0001
555,0.000833
556,0.000972
557,0.000228
558,0.000666
559,0.000819
560,0.000289
561,0.001245
562,0.000986
563,0.000578
564,0.000542
565,0.00055
566,0.000273
567,0.000199
568,0.000214
569,0.000825
570,0.000411
571,0.000967
572,0.000974
573,-0.000065
574,0.000252
575,0.000078
576,0.000588
577,0.000807
578,0.000105
579,0.000116
580,0.000423
581,0.000132
582,-0.000005
583,0.000731
584,0.000368
585,0.001091
586,0.00033
587,0.000279
588,0.000684
589,0.000242
590,0.000189
591,-0.000257
592,0.000043
593,0.000801
594,-0.000178
595,0.000563
596,0.000267
597,-0.000043
598,0.000151
599,-0.00022
600,0.000529
601,0.000092
602,0.00044
603,0.000119
604,-0.000267
605,-0.000621
606,0.000052
607,-0.00037
608,-0.000335
609,-0.00038
610,0.000074
611,0.000429
612,-0.000434
613,0.000292
614,0.000356
615,0.000243
616,-0.000348
617,0.000216
618,-0.000019
619,0.000387
620,0.000896
621,0.000231
622,0.000265
623,0.000593
624,0.000236
625,0.00075
626,0.001579
627,0.000243
628,0.000509
629,-0.000003
630,-0.000206
631,-0.000479
632,0.000581
633,-0.000144
634,0.001802
635,0.000272
636,0.000356
637,0.000385
638,-0.000218
639,0.000092
640,0.0005
641,-0.000137
642,0.000179
643,0.000839
644,0.000602
645,0.000649
646,0.000187
647,0.000144
648,-0.000007
649,0.000052
650,0.001497
651,0.000367
652,0.000877
653,0.00116
654,-0.000258
655,0.000037
656,0.000232
657,0.000096
658,0.000324
659,0.001285
660,0.000338
661,0.000652
662,0.000783
663,0.000943
664,0.000365
665,0.00068
666,0.000085
667,0.000714
668,0.001001
669,0.000901
670,0.00026
671,0.000804
672,0.001136
673,0.000322
674,-0.000019
675,0.000294
676,0.000726
677,0.000714
678,0.000363
679,0.0006
680,0.000374
681,-0.000092
682,0.000202
683,0.000201
684,0.000328
685,0.00074
686,0.000682
687,0.00048
688,0.000229
689,0.000818
690,-0.000071
691,-0.000331
692,0.000184
693,0.000191
694,0.000424
695,-0.000502
696,0.00088
697,0.000319
698,0.000373
699,0.00085
700,-0.000033
701,0.000163
702,0.00101
703,0.000639
704,0.000521
705,-0.00028
706,0.000141
707,0.001593
708,0.000769
709,0.000775
710,0.000437
711,-0.000219
712,0.001617
713,0.001277
714,0.000057
715,-0.000039
716,0.000194
717,0.000777
718,0.000609
719,0.00104
720,0.000508
721,0.000972
722,0.000257
723,-0.000156
724,-0.000775
725,0.000503
726,0.000027
727,0.000428
728,-0.000428
729,-0.000063
730,0.00021
731,-0.000128
732,0.002145
733,0.001041
734,0.000525
735,-0.001037
736,0.000478
737,0.000896
738,0.001488
739,0.001242
740,0.00038
741,0.000807
742,0.001289
743,0.000396
744,0.000804
745,-0.000738
746,0.000669
747,0.001297
748,0.000336
749,0.000619
750,-0.000371
751,-0.000057
752,-0.000295
753,0.000806
754,0.001028
755,0.000654
756,0.001239
757,0.000409
758,0.000133
759,0.000025
760,-0.000275
761,-0.000326
762,0.000265
763,0.001451
764,0.0015
765,0.000107
766,0.000421
767,0.001031
768,0.000972
769,0.001352
770,0.001961
771,-0.000769
772,0.000852
773,0.000244
774,0.000957
775,0.000168
776,-0.000449
777,-0.000854
778,0.001781
779,0.003042
780,-0.000785
781,0.001471
782,0.001117
783,-0.00057
784,0.002123
785,0.001098
786,0.001769
787,0.000743
788,-0.001478
789,-0.000135
790,-0.001925
791,-0.000761
792,0.000895
793,0.001728
794,0.000661
795,0.001554
796,-0.000029
797,-0.001926
798,0.000643
799,0.001242
800,0.001979
