230,0.102557
231,0.099804
232,0.097227
233,0.094791
234,0.092461
235,0.090097
236,0.088017
237,0.086359
238,0.084327
239,0.08256
240,0.080953
241,0.079119
242,0.077681
243,0.076531
244,0.075207
245,0.073855
246,0.072605
247,0.071421
248,0.070647
249,0.069888
250,0.068831
251,0.067639
252,0.066446
253,0.065239
254,0.064443
255,0.063624
256,0.062394
257,0.060691
258,0.058745
259,0.056899
260,0.05547
261,0.054307
262,0.053042
263,0.051468
264,0.048967
265,0.046519
266,0.044887
267,0.043398
268,0.042058
269,0.041042
270,0.039913
271,0.038883
272,0.037999
273,0.037411
274,0.036449
275,0.035693
276,0.034737
277,0.03409
278,0.033133
279,0.032549
280,0.031834
281,0.030998
282,0.030237
283,0.029676
284,0.028998
285,0.028173
286,0.027617
287,0.027068
288,0.026273
289,0.025767
290,0.025121
291,0.024566
292,0.023977
293,0.023443
294,0.022934
295,0.022491
296,0.022039
297,0.021499
298,0.021213
299,0.020876
300,0.0203
301,0.019944
302,0.019515
303,0.01925
304,0.019037
305,0.018714
306,0.018252
307,0.017945
308,0.017712
309,0.017448
310,0.017141
311,0.016853
312,0.016517
313,0.016358
314,0.016002
315,0.01582
316,0.015634
317,0.014991
318,0.015165
319,0.014664
320,0.014474
321,0.014306
322,0.013933
323,0.013834
324,0.013425
325,0.013392
326,0.013331
327,0.01301
328,0.012656
329,0.012533
330,0.012245
331,0.011884
332,0.01098
333,0.011805
334,0.011164
335,0.01117
336,0.011331
337,0.011722
338,0.010755
339,0.011417
340,0.010483
341,0.010624
342,0.01089
343,0.009568
344,0.010001
345,0.009768
346,0.009869
347,0.009614
348,0.009439
349,0.009265
350,0.009374
351,0.009935
352,0.009196
353,0.009124
354,0.008382
355,0.008865
356,0.009108
357,0.008249
358,0.008604
359,0.007553
360,0.008324
361,0.007981
362,0.007961
363,0.007837
364,0.007778
365,0.007572
366,0.007675
367,0.007148
368,0.007106
369,0.007711
370,0.007659
371,0.006922
372,0.007144
373,0.006947
374,0.006848
375,0.007189
376,0.007067
377,0.006394
378,0.006675
379,0.005814
380,0.006089
381,0.005883
382,0.006194
383,0.005856
384,0.005858
385,0.006
386,0.005704
387,0.00578
388,0.005845
389,0.005245
390,0.005811
391,0.00487
392,0.005375
393,0.004948
394,0.005434
395,0.005577
396,0.004974
397,0.005074
398,0.0056
399,0.00468
400,0.005301
401,0.004477
402,0.004491
403,0.004871
404,0.004552
405,0.004917
406,0.005089
407,0.004989
408,0.004969
409,0.004513
410,0.00445
411,0.00442
412,0.004886
413,0.004808
414,0.004262
415,0.004592
416,0.004438
417,0.004208
418,0.004282
419,0.004732
420,0.004153
421,0.004502
422,0.004317
423,0.004461
424,0.004391
425,0.004325
426,0.004304
427,0.004313
428,0.004397
429,0.004126
430,0.004391
431,0.004065
432,0.003961
433,0.004186
434,0.004139
435,0.004179
436,0.003939
437,0.003999
438,0.003948
439,0.004164
440,0.00398
441,0.003908
442,0.004273
443,0.003942
444,0.004051
445,0.004029
446,0.004073
447,0.003811
448,0.004033
449,0.003922
450,0.003737
451,0.00401
452,0.00391
453,0.003908
454,0.003919
455,0.003704
456,0.003893
457,0.003737
458,0.003724
459,0.004047
460,0.003845
461,0.003742
462,0.00359
463,0.003666
464,0.003974
465,0.003906
466,0.003618
467,0.004057
468,0.003618
469,0.003504
470,0.003725
471,0.00376
472,0.003708
473,0.002928
474,0.00385
475,0.003493
476,0.003833
477,0.003267
478,0.003636
479,0.003971
480,0.003558
481,0.003796
482,0.003838
483,0.003475
484,0.003912
485,0.0033
486,0.003568
487,0.003252
488,0.003444
489,0.003276
490,0.003284
491,0.003179
492,0.00324
493,0.003106
494,0.003023
495,0.003182
496,0.003357
497,0.003145
498,0.003725
499,0.003097
500,0.002893
501,0.003252
502,0.002837
503,0.003004
504,0.002368
505,0.003036
506,0.003
507,0.003067
508,0.003278
509,0.00361
510,0.003533
511,0.003272
512,0.003591
513,0.003386
514,0.002409
515,0.003251
516,0.002811
517,0.003115
518,0.002734
519,0.00327
520,0.003124
521,0.002566
522,0.002933
523,0.002941
524,0.003024
525,0.003196
526,0.003144
527,0.003099
528,0.002959
529,0.002946
530,0.002928
531,0.003161
532,0.003099
533,0.003098
534,0.00277
535,0.002912
536,0.003075
537,0.002902
538,0.00321
539,0.002483
540,0.002677
541,0.002919
542,0.003286
543,0.003103
544,0.00302
545,0.002759
546,0.002785
547,0.002199
548,0.002948
549,0.002949
550,0.002108
551,0.003016
552,0.002763
553,0.003041
554,0.002511
555,0.003367
556,0.003305
557,0.002914
558,0.003073
559,0.002512
560,0.00305
561,0.003399
562,0.002993
563,0.002867
564,0.002912
565,0.00256
566,0.002406
567,0.002394
568,0.002102
569,0.003004
570,0.002826
571,0.002862
572,0.002717
573,0.002303
574,0.002374
575,0.001927
576,0.002597
577,0.002737
578,0.00198
579,0.001977
580,0.002493
581,0.002584
582,0.002084
583,0.002501
584,0.001121
585,0.002876
586,0.002413
587,0.002096
588,0.002326
589,0.002702
590,0.002489
591,0.001028
592,0.00168
593,0.00239
594,0.00251
595,0.002598
596,0.002138
597,0.001834
598,0.00193
599,0.001771
600,0.001699
601,0.001597
602,0.001663
603,0.001877
604,0.001394
605,0.00162
606,0.001419
607,0.001718
608,0.001618
609,0.001273
610,0.00107
611,0.001797
612,0.001884
613,0.001392
614,0.001891
615,0.001667
616,0.001477
617,0.001492
618,0.001328
619,0.002261
620,0.002489
621,0.001794
622,0.00232
623,0.001736
624,0.001689
625,0.002177
626,0.002545
627,0.002442
628,0.001905
629,0.001447
630,0.001236
631,0.000792
632,0.001995
633,0.001914
634,0.001657
635,0.0017
636,0.002105
637,0.001981
638,0.001768
639,0.001787
640,0.002227
641,0.001974
642,0.00145
643,0.002989
644,0.001866
645,0.001432
646,0.001622
647,0.001578
648,0.001611
649,0.001753
650,0.00326
651,0.00191
652,0.003208
653,0.001958
654,0.001877
655,0.001362
656,0.002254
657,0.001923
658,0.001884
659,0.002019
660,0.001887
661,0.002683
662,0.002656
663,0.001812
664,0.001885
665,0.001576
666,0.003422
667,0.002612
668,0.001705
669,0.002182
670,0.001776
671,0.001739
672,0.002681
673,0.002851
674,0.001857
675,0.002345
676,0.002716
677,0.002501
678,0.001841
679,0.001652
680,0.001885
681,0.001823
682,0.001871
683,0.00211
684,0.001926
685,0.002133
686,0.002437
687,0.00201
688,0.001557
689,0.001896
690,0.002207
691,0.001826
692,0.001307
693,0.001943
694,0.002498
695,0.001286
696,0.001682
697,0.002078
698,0.002594
699,0.002458
700,0.002753
701,0.001401
702,0.00186
703,0.002358
704,0.002526
705,0.003467
706,0.002212
707,0.003815
708,0.003247
709,0.001494
710,0.002832
711,0.001547
712,0.002115
713,0.002784
714,0.001784
715,0.002516
716,0.00262
717,0.002709
718,0.002873
719,0.002383
720,0.003277
721,0.003251
722,0.003023
723,0.002764
724,0.00165
725,0.002355
726,0.000518
727,0.003202
728,0.001489
729,0.001421
730,0.001524
731,0.001486
732,0.002342
733,0.001914
734,0.002227
735,0.000557
736,0.002474
737,0.003227
738,0.002803
739,0.004446
740,0.002279
741,0.001596
742,0.001711
743,0.002372
744,0.001566
745,0.001261
746,0.002992
747,0.000791
748,0.003783
749,0.002755
750,0.000715
751,0.001867
752,0.001059
753,0.002365
754,0.002
755,0.000602
756,0.002207
757,0.000796
758,0.000069
759,0.001173
760,0.001864
761,0.001676
762,0.000796
763,0.000832
764,0.001307
765,0.002095
766,0.000568
767,0.00198
768,0.000415
769,0.001944
770,0.001821
771,0.001197
772,0.003064
773,0.001865
774,0.00277
775,0.001119
776,-0.000385
777,-0.001052
778,0.000652
779,0.002282
780,-0.000014
781,0.001428
782,0.000646
783,0.001154
784,0.002744
785,0.002234
786,0.001996
787,0.001032
788,-0.000351
789,-0.000115
790,0.002135
791,0.00178
792,0.000157
793,0.00193
794,0.001971
795,0.001552
796,0.001036
797,0.001305
798,0.003026
799,0.002287
800,0.001763
