230,0.106795
231,0.104981
232,0.103233
233,0.10139
234,0.099673
235,0.097909
236,0.096395
237,0.09512
238,0.093532
239,0.092098
240,0.090841
241,0.089336
242,0.088124
243,0.087098
244,0.085917
245,0.084898
246,0.083819
247,0.082737
248,0.081983
249,0.081244
250,0.080309
251,0.079589
252,0.078802
253,0.077958
254,0.077363
255,0.07664
256,0.07586
257,0.075254
258,0.074624
259,0.073831
260,0.073092
261,0.072563
262,0.071821
263,0.071302
264,0.070448
265,0.069612
266,0.0689
267,0.068291
268,0.067527
269,0.066869
270,0.065971
271,0.065391
272,0.064601
273,0.063907
274,0.063263
275,0.062384
276,0.06172
277,0.061167
278,0.060338
279,0.059678
280,0.059163
281,0.058356
282,0.057661
283,0.057079
284,0.056368
285,0.055682
286,0.05504
287,0.054315
288,0.053569
289,0.052917
290,0.052267
291,0.05161
292,0.051128
293,0.050432
294,0.04983
295,0.049218
296,0.048683
297,0.04796
298,0.047462
299,0.046946
300,0.046306
301,0.045734
302,0.045162
303,0.044651
304,0.044207
305,0.043528
306,0.04307
307,0.042546
308,0.041937
309,0.041555
310,0.041045
311,0.0404
312,0.039798
313,0.039369
314,0.038882
315,0.0384
316,0.037946
317,0.037415
318,0.036917
319,0.03648
320,0.035769
321,0.035506
322,0.034586
323,0.034243
324,0.033861
325,0.033495
326,0.033114
327,0.032615
328,0.031915
329,0.031626
330,0.031188
331,0.030542
332,0.029706
333,0.029423
334,0.029736
335,0.028749
336,0.028534
337,0.028325
338,0.027382
339,0.027557
340,0.02676
341,0.026375
342,0.026726
343,0.026139
344,0.025213
345,0.024824
346,0.024576
347,0.024712
348,0.023629
349,0.023731
350,0.023332
351,0.023754
352,0.022681
353,0.022572
354,0.022203
355,0.022213
356,0.021761
357,0.021101
358,0.021272
359,0.020491
360,0.0206
361,0.01991
362,0.019597
363,0.019836
364,0.019362
365,0.018777
366,0.0191
367,0.018338
368,0.017802
369,0.018296
370,0.017735
371,0.017641
372,0.016895
373,0.016548
374,0.016738
375,0.016693
376,0.016262
377,0.015841
378,0.015524
379,0.015495
380,0.015334
381,0.014638
382,0.015194
383,0.01409
384,0.014441
385,0.014336
386,0.013965
387,0.013947
388,0.013547
389,0.013128
390,0.013287
391,0.013131
392,0.01263
393,0.012007
394,0.012757
395,0.012703
396,0.011885
397,0.012132
398,0.012389
399,0.011813
400,0.011202
401,0.011152
402,0.011605
403,0.010668
404,0.010806
405,0.011188
406,0.010675
407,0.010733
408,0.010586
409,0.010385
410,0.009958
411,0.010298
412,0.010062
413,0.00979
414,0.009634
415,0.009889
416,0.009941
417,0.009392
418,0.00932
419,0.009295
420,0.009062
421,0.009165
422,0.0089
423,0.009074
424,0.009027
425,0.008929
426,0.008621
427,0.008638
428,0.008772
429,0.008517
430,0.008298
431,0.008115
432,0.00792
433,0.007928
434,0.007993
435,0.008065
436,0.008012
437,0.007649
438,0.007561
439,0.007876
440,0.007454
441,0.007555
442,0.007577
443,0.007248
444,0.007338
445,0.007264
446,0.007287
447,0.007296
448,0.007146
449,0.007147
450,0.00689
451,0.006669
452,0.006906
453,0.006678
454,0.006933
455,0.006505
456,0.00665
457,0.006357
458,0.006388
459,0.006621
460,0.006404
461,0.006471
462,0.006301
463,0.006129
464,0.006385
465,0.006061
466,0.006317
467,0.006187
468,0.005945
469,0.00595
470,0.006011
471,0.006371
472,0.00609
473,0.005353
474,0.005924
475,0.006009
476,0.006121
477,0.00523
478,0.00559
479,0.006182
480,0.005617
481,0.005814
482,0.005717
483,0.005479
484,0.00562
485,0.005287
486,0.005186
487,0.005207
488,0.005401
489,0.005205
490,0.005064
491,0.005031
492,0.005017
493,0.0053
494,0.004844
495,0.005009
496,0.004634
497,0.004765
498,0.005194
499,0.004968
500,0.004896
501,0.00485
502,0.004809
503,0.004608
504,0.004166
505,0.00471
506,0.004459
507,0.004635
508,0.004749
509,0.005093
510,0.005396
511,0.004444
512,0.004944
513,0.00479
514,0.003991
515,0.004144
516,0.004158
517,0.00461
518,0.004053
519,0.004238
520,0.004283
521,0.003878
522,0.003887
523,0.004295
524,0.004325
525,0.004472
526,0.003977
527,0.004084
528,0.004108
529,0.004021
530,0.003899
531,0.00405
532,0.00401
533,0.003912
534,0.003782
535,0.003606
536,0.003935
537,0.00389
538,0.003928
539,0.003644
540,0.003369
541,0.003785
542,0.003878
543,0.00379
544,0.003913
545,0.003512
546,0.003524
547,0.003029
548,0.003929
549,0.004036
550,0.003375
551,0.003995
552,0.003428
553,0.003764
554,0.003546
555,0.00373
556,0.003428
557,0.003432
558,0.003349
559,0.003664
560,0.002738
561,0.003614
562,0.003854
563,0.00283
564,0.003152
565,0.002896
566,0.002988
567,0.002867
568,0.002887
569,0.003529
570,0.003038
571,0.003101
572,0.003389
573,0.002636
574,0.002971
575,0.002745
576,0.003193
577,0.003101
578,0.002402
579,0.002897
580,0.00276
581,0.002948
582,0.003278
583,0.003572
584,0.00253
585,0.002319
586,0.002895
587,0.002397
588,0.002832
589,0.002795
590,0.003305
591,0.002673
592,0.002596
593,0.0025
594,0.00295
595,0.003046
596,0.002733
597,0.002787
598,0.002342
599,0.001828
600,0.002509
601,0.002123
602,0.002411
603,0.002493
604,0.001927
605,0.00213
606,0.002106
607,0.002254
608,0.002004
609,0.002039
610,0.002337
611,0.002312
612,0.002258
613,0.002278
614,0.002772
615,0.002132
616,0.002488
617,0.002666
618,0.002267
619,0.002568
620,0.003318
621,0.001758
622,0.002534
623,0.002379
624,0.002608
625,0.003349
626,0.002802
627,0.002905
628,0.002318
629,0.002273
630,0.001836
631,0.001914
632,0.002648
633,0.002795
634,0.003022
635,0.002247
636,0.002788
637,0.002406
638,0.002721
639,0.002295
640,0.002315
641,0.001157
642,0.002193
643,0.002478
644,0.002888
645,0.00207
646,0.002496
647,0.00214
648,0.003201
649,0.002067
650,0.004114
651,0.002573
652,0.002377
653,0.00228
654,0.000942
655,0.000797
656,0.002369
657,0.002795
658,0.003208
659,0.002028
660,0.002469
661,0.002639
662,0.001964
663,0.002444
664,0.001458
665,0.002161
666,0.002809
667,0.002975
668,0.00203
669,0.00224
670,0.001169
671,0.001766
672,0.002628
673,0.001855
674,0.00124
675,0.002222
676,0.002054
677,0.002698
678,0.002041
679,0.001529
680,0.001622
681,0.001823
682,0.002042
683,0.002099
684,0.002244
685,0.002274
686,0.002109
687,0.002562
688,0.002162
689,0.002351
690,0.002579
691,0.001784
692,0.001724
693,0.002604
694,0.002383
695,0.001152
696,0.002871
697,0.00189
698,0.002007
699,0.002488
700,0.002056
701,0.002027
702,0.001587
703,0.002203
704,0.001805
705,0.002524
706,0.000903
707,0.002599
708,0.002793
709,0.002241
710,0.001861
711,0.000653
712,0.002093
713,0.002057
714,0.000828
715,0.00161
716,0.002731
717,0.002409
718,0.001815
719,0.001971
720,0.002118
721,0.001983
722,0.001791
723,0.001522
724,0.001408
725,0.001509
726,0.000927
727,0.001913
728,0.001736
729,0.001581
730,0.002614
731,0.001401
732,0.002243
733,0.002233
734,0.001937
735,0.000709
736,0.001855
737,0.001861
738,0.001945
739,0.002063
740,0.001283
741,0.001861
742,0.003167
743,0.001474
744,0.000317
745,0.001055
746,0.002344
747,0.001561
748,0.001802
749,0.002538
750,0.002166
751,0.000226
752,0.002422
753,0.002187
754,0.001938
755,0.001707
756,0.000729
757,0.002874
758,-0.00048
759,0.001711
760,0.001664
761,-0.000017
762,0.001392
763,0.000771
764,0.001881
765,0.002436
766,0.000765
767,0.002586
768,0.002368
769,0.003064
770,0.00176
771,0.001054
772,0.002062
773,0.000102
774,0.001157
775,0.002768
776,0.0011
777,0.000584
778,0.002275
779,0.003351
780,0.000847
781,0.000671
782,0.001947
783,-0.000716
784,0.003589
785,0.001974
786,0.00205
787,-0.000193
788,0.002
789,-0.000764
790,0.000839
791,0.001062
792,0.00234
793,0.002722
794,0.001506
795,0.002608
796,0.001914
797,-0.001475
798,0.001031
799,0.00192
800,0.001799
