Wavelength	I1	I1 dark	R1	R1dark	XCorrect	I1c	R1c	I1c/R1c	Abs	Percent T
nm	uA	uA	uA	uA		uA	uA	uA/uA	OD	T*100
	Abs Detector Raw	Dark Offset for Abs Detector	Ref Detector Raw	Dark Offset for Ref Detector	Linear interp	Dark subtracted Abs Detector	Corrected Ref Detector	Corrected Intensity 	-Log(T)	% Transmittance
700	0.404842135410951	0.00223705866778082	0.491455005031811	7.92694088629426E-9	1.02473187446594	0.402605076743171	0.503609600398927	0.799438843946288	-5.20652516758302E-4	100.119956562771
698	0.410035343585813		0.498483129534226		1.02452707290649	0.407798284918032	0.510709453473604	0.798493707418928	-4.4716641590599E-4	100.103016898328
696	0.435191045694769		0.529258586470674		1.0254340171814	0.432953987026988	0.542719750323816	0.79774872163518	-4.73341213900012E-4	100.109050258905
694	0.476769655758121		0.579377988407576		1.02713179588318	0.47453259709034	0.595097545586244	0.797403048642836	-4.27350542819675E-4	100.098449528703
692	0.521895537183689		0.633235916659167		1.0291953086853	0.519658478515908	0.651723426558282	0.797360440547914	-4.80173360695782E-4	100.110625146765
690	0.559001141940771		0.677519375954875		1.03111636638641	0.55676408327299	0.698601308917383	0.796969711001262	-4.95717704980556E-4	100.114208387948
688	0.584115820795495		0.707909415365444		1.03234148025513	0.581878762127715	0.730804245561594	0.796216997454036	-5.02801392762421E-4	100.115841343484
686	0.601949815897762		0.729519173861578		1.03273642063141	0.599712757229981	0.753401012209348	0.796007368600852	-4.6264417572669E-4	100.106584519209
684	0.609816334796618		0.738954203308553		1.03241991996765	0.607579276128837	0.762911031255644	0.796395977036598	-4.65414856364198E-4	100.10722317402
682	0.606266276123153		0.734840046924752		1.03160095214844	0.604029217455372	0.758061683906937	0.796807476592532	-4.35696891264127E-4	100.10037325696
680	0.604170438729183		0.732916497221651		1.03062152862549	0.601933380061403	0.75535951255174	0.796883298693047	-4.49132122647162E-4	100.103469986333
678	0.612291933400758		0.743355483151242		1.02938807010651	0.610054874732977	0.765201258044249	0.797247610768695	-4.39045725355837E-4	100.101145131457
676	0.627805689254483		0.762605844590247		1.027991771698	0.625568630586702	0.783952525138746	0.797967492324854	-4.60057131241315E-4	100.105988197066
674	0.642212736879457		0.780541901271884		1.02646279335022	0.639975678211677	0.801197212169719	0.798774219993303	-4.36148748545097E-4	100.10047740543
672	0.6556993119082		0.79743749024058		1.02487134933472	0.653462253240419	0.817270828508859	0.799566349912043	-4.42818672442221E-4	100.102014767108
670	0.668153331727727		0.813061168062766		1.02321696281433	0.665916273059946	0.831937970856476	0.800439812086457	-4.32752747111587E-4	100.099694664572
668	0.679540579090579		0.827305791278083		1.02134227752686	0.677303520422798	0.844962372978995	0.801578321215536	-5.04589708148875E-4	100.116253596173
666	0.688459163321018		0.838692957417228		1.01928961277008	0.686222104653237	0.854871011718951	0.802720053956913	-5.02065749627097E-4	100.115671759314
664	0.696853441006827		0.849595580476878		1.01711809635162	0.694616382339046	0.86413903142076	0.803824797957574	-4.7915080811298E-4	100.11038943514
662	0.706122812119879		0.861500046794244		1.01487874984741	0.703885753452098	0.874318082439146	0.805068278455844	-4.85644195650286E-4	100.111886254561
660	0.719045363619475		0.877958208067874		1.01273846626282	0.716808304951694	0.889142041053592	0.806179746154292	-5.02526835219318E-4	100.115778051059
658	0.735360367873694		0.898701048561161		1.01078748703003	0.733123309205913	0.908395766453936	0.807052758587564	-4.44039606106863E-4	100.102296184664
656	0.756435483286778		0.925247416393789		1.00910043716431	0.754198424618997	0.933667564369038	0.807780470695344	-4.23727593641349E-4	100.097614496028
654	0.786243890525692		0.962424551067202		1.00764882564545	0.784006831857911	0.96978596066764	0.808432853903319	-4.43214838718988E-4	100.102106080865
652	0.817376559703426		1.00113038211747		1.00644826889038	0.815139501035645	1.00758593203764	0.809002463330539	-4.17369868767945E-4	100.096149157504
650	0.839449687713934		1.02848891143648		1.00542259216309	0.837212629046153	1.03406597937754	0.809631731188101	-4.19453282488926E-4	100.096629343644
648	0.847376925794488		1.03872212813613		1.00459063053131	0.845139867126707	1.04349050968777	0.809916198834992	-4.09525845470446E-4	100.094341284118
646	0.850348063196227		1.04322038157368		1.00393974781036	0.848111004528446	1.04733039882955	0.809783622700402	-4.24418602723647E-4	100.097773762191
644	0.858640383062432		1.05425964262858		1.00340497493744	0.856403324394651	1.05784936233535	0.809570204309636	-4.45357897915702E-4	100.10260004355
642	0.873789221455926		1.07384511900014		1.00290107727051	0.871552162788146	1.07696041871698	0.809270375810519	-4.2536285577109E-4	100.097991397309
640	0.893985751291842		1.09954954817177		1.00236213207245	0.891748692624061	1.10214682147909	0.809101541868376	-4.45830786750103E-4	100.102709042005
638	0.916828916671568		1.12859490703633		1.00166118144989	0.914591858003788	1.13046970002023	0.8090370383102	-4.16658270947603E-4	100.095985148643
636	0.941535224321495		1.15985677073729		1.00077903270721	0.939298165653714	1.16076032916426	0.80920939668054	-4.03463528982659E-4	100.092944077003
634	0.964348510175349		1.18871148723106		0.999723374843597	0.962111451507569	1.18838265180524	0.809597354897473	-4.69984230684331E-4	100.108276445015
632	0.984993996308299		1.21512269224121		0.998525381088257	0.982756937640518	1.21333084142389	0.809966172529836	-4.25117791856738E-4	100.097934913979
630	1.00552566924684		1.2413816046776		0.997326076030731	1.00328861057906	1.2380622367441	0.810370093524169	-4.33239336915873E-4	100.099806817777
628	1.02755330587757		1.26958102520044		0.995982348918915	1.02531624720979	1.26448028372693	0.810859813636459	-4.3442186214894E-4	100.100079376406
626	1.05162008857137		1.30031796026768		0.994540870189667	1.04938302990359	1.2932193478442	0.811450146993944	-4.27609873291278E-4	100.098509300556
624	1.07459652843975		1.32962290540674		0.993056654930115	1.07235946977197	1.32039086688978	0.812153050026728	-4.30265108814514E-4	100.099121295277
622	1.09248999619803		1.35269876872724		0.991701006889343	1.09025293753025	1.34147272310363	0.812728368421714	-4.27175505524414E-4	100.098409185206
620	1.10613375882004		1.37064678407395		0.990615010261536	1.10389670015226	1.35778327021781	0.813013920826392	-4.02358472677024E-4	100.092689392214
618	1.11601026822694		1.3839858685872		0.990181982517242	1.11377320955916	1.37039786328441	0.812737117737325	-4.02098081863935E-4	100.092629379458
616	1.12649654982942		1.3981875282172		0.990417122840881	1.12425949116164	1.38478886103791	0.811863470882485	-3.85185471275497E-4	100.088731575611
614	1.13668580760121		1.41191440147215		0.991193890571594	1.13444874893343	1.39948092089211	0.810621089575314	-4.16420562560281E-4	100.095930361742
612	1.14820252602349		1.42748208564222		0.992228329181671	1.14596546735571	1.41638815690821	0.809075860855262	-4.02396342523374E-4	100.092698120151
610	1.16114259977737		1.44482096825397		0.993061780929565	1.15890554110959	1.43479647598673	0.807714237179594	-4.03664287274319E-4	100.092990346283
608	1.17641165207513		1.46497312459247		0.993314802646637	1.17417459340735	1.45517948226325	0.806893312968618	-4.21670083539192E-4	100.097140275485
606	1.19550372728806		1.48993986690557		0.992952227592468	1.19326666862028	1.47943910195164	0.806566939488182	-4.09185183803119E-4	100.0942627699
604	1.21782925820471		1.51891298690699		0.992071509361267	1.21559219953693	1.50687029164515	0.806699957041282	-4.26903034726612E-4	100.098346384765
602	1.24210853291614		1.55040199575802		0.990931510925293	1.23987147424836	1.53634218434303	0.807028204318002	-3.90398066641042E-4	100.089932892254
600	1.27000501530166		1.58626933194659		0.989943742752075	1.26776795663388	1.57031739163281	0.807332303258553	-3.77176832032404E-4	100.086885899034
598	1.30084358282417		1.6257650072132		0.989287972450256	1.29860652415639	1.60834975982449	0.807415499162381	-4.07445985605986E-4	100.093861928028
596	1.33258569179063		1.66659422317085		0.988997519016266	1.33034863312285	1.64825754408308	0.807124249422392	-3.65988581936365E-4	100.084307504112
594	1.36678834715277		1.7104915890937		0.989019095897675	1.36455128848498	1.69170883714613	0.806611196041837	-3.5400241115939E-4	100.081545297596
592	1.40011209626841		1.75332055432971		0.989216387271881	1.39787503760063	1.73441341664211	0.805964151446064	-3.48011850406644E-4	100.080164804711
590	1.43264553448351		1.79525300373773		0.989368975162506	1.43040847581573	1.77616761662274	0.80533417140864	-3.2992935330268E-4	100.07599790485
588	1.46291033491847		1.83435480271009		0.989350080490112	1.46067327625069	1.81481906386614	0.804858900445423	-3.40989315500673E-4	100.078546523112
586	1.49061938397392		1.8704293945694		0.98914635181427	1.48838232530614	1.85012840412359	0.804475149934895	-3.25616127445325E-4	100.075003998051
584	1.51683948884962		1.90459096153401		0.988804697990417	1.51460243018183	1.88326848267672	0.804241372971476	-3.5373607979929E-4	100.081483922545
582	1.54220670535733		1.93789614985871		0.988359570503235	1.53996964668955	1.91533819851956	0.80401970152313	-3.7344141225161E-4	100.086025043229
580	1.56789151548231		1.97171635236029		0.987916827201843	1.56565445681453	1.94789175513461	0.803768716966683	-3.60604144489753E-4	100.083066654009
578	1.59487775711126		2.00735007414174		0.987463474273682	1.59264069844348	1.98218487046797	0.803477375986366	-3.17759660438328E-4	100.073193639209
576	1.62311176719601		2.04442330726057		0.987005352973938	1.62087470852823	2.01785674018694	0.803265502573818	-3.3637068929816E-4	100.077482215462
574	1.65233375616803		2.08285935165327		0.986572206020355	1.65009669750025	2.05489113757019	0.803009301724573	-3.81560465512043E-4	100.087896150042
572	1.68183170620792		2.12181030740207		0.986202597618103	1.67959464754014	2.09253482899522	0.802660306661004	-3.33679634445011E-4	100.076862098995
570	1.71079052942829		2.16010279898584		0.985956788063049	1.70855347076051	2.12976800975846	0.80222515453891	-3.23962706925708E-4	100.074622999082
568	1.73895412794857		2.19765884413325		0.985915243625641	1.73671706928079	2.16670534690439	0.801547414724419	-2.77580912141817E-4	100.063935797263
566	1.76667785971504		2.23459142173508		0.986069560050964	1.76444080104726	2.20346257230745	0.800758235343908	-2.51543569380513E-4	100.057936824208
564	1.79794917823116		2.27610584840212		0.98643833398819	1.79571211956338	2.24523805325913	0.799786961100528	-2.41104975770669E-4	100.055531885551
562	1.83051252836772		2.31929998134251		0.986926913261414	1.82827546969994	2.28897956369031	0.798729485706891	-2.11014515140984E-4	100.048599693523
560	1.86497812036492		2.36475680958635		0.987455606460571	1.86274106169714	2.33509236171436	0.797716224093839	-2.25565745059989E-4	100.051951922546
558	1.8999578668823		2.41099108674536		0.987996757030487	1.89772080821452	2.38205136710203	0.796675014831127	-2.08823437368937E-4	100.048094935302
556	1.93682189355291		2.45943158009147		0.988564491271973	1.93458483488513	2.43130672095505	0.795697563870179	-2.21208537210664E-4	100.050948122172
554	1.97321542696743		2.50753975109815		0.989157021045685	1.97097836829965	2.4803505425089	0.794637021872718	-2.24665136221599E-4	100.051744442178
552	2.00927957148604		2.55519904515351		0.989745855331421	2.00704251281826	2.52899765664183	0.793611851536208	-2.36696325936266E-4	100.054516197847
550	2.04754199151794		2.60559462412882		0.990298986434937	2.04530493285016	2.58031770748505	0.792656240321528	-2.27228254450545E-4	100.052334929088
548	2.0872868230899		2.65884391778624		0.990660965442657	2.08504976442212	2.63401287470254	0.791586777895906	-2.20931161724018E-4	100.050884221586
546	2.12874163437257		2.7134060175532		0.990815043449402	2.12650457570479	2.68848349332371	0.790968060985134	-2.06060554822415E-4	100.047458454141
544	2.17032895579594		2.76808870025236		0.990794599056244	2.16809189712816	2.74260732606469	0.790522170827536	-1.70304720809646E-4	100.039221800878
542	2.21081241416783		2.82152096416146		0.990690350532532	2.20857535550005	2.79525358516686	0.790116276827248	-1.40850172541764E-4	100.03243721049
540	2.25158171613834		2.8754603306827		0.990695714950562	2.24934465747056	2.84870622026449	0.789602185535901	-1.24648591764435E-4	100.028705518172
538	2.30021772293018		2.93918198006751		0.990894556045532	2.2979806642624	2.91241941542126	0.789028067899352	-1.44134414395347E-4	100.033193683282
536	2.35189378755242		3.00663188214174		0.991336405277252	2.34965672888463	2.98058363417611	0.788321019394622	-1.72730135922554E-4	100.039780493949
534	2.40911843801486		3.08145951480548		0.991989970207214	2.40688137934708	3.05677692442318	0.78739189638487	-1.48739816191299E-4	100.034254473855
532	2.4685827538079		3.15918849586509		0.992775619029999	2.46634569514012	3.13636530674524	0.786370672394528	-1.13196421655548E-4	100.026067836379
530	2.52827531103633		3.23710329986565		0.993559658527374	2.52603825236855	3.21625524135647	0.785397321670026	-9.02907306453149E-5	100.020792370356
528	2.59010717489684		3.31783047239465		0.994197487831116	2.58787011622906	3.29857871282334	0.784540961890229	-1.14321613888696E-4	100.026326989338
526	2.65167928440141		3.39841608279981		0.994674623012543	2.64944222573363	3.38031822811393	0.783784853064529	-5.52760663402348E-5	100.012728594652
524	2.71683844880451		3.4832203605559		0.995013654232025	2.71460139013672	3.4658518115647	0.78324219779933	-3.98428215761788E-5	100.00917456954
522	2.77990221808377		3.56540892881222		0.995269954204559	2.77766515941598	3.54854437341002	0.782761850247556	-1.57714218899677E-5	100.003631570034
520	2.8451702372791		3.65000519124463		0.99559760093689	2.84293317861132	3.6339364039183	0.782328819939149	-3.82567361755978E-5	100.008809327041
518	2.9104981422915		3.73487235023544		0.995971322059631	2.90826108362372	3.71982574449295	0.781827236915406	-2.72869434794115E-5	100.006283248317
516	2.97226766202665		3.8149408238488		0.996365666389465	2.97003060335887	3.80107604829235	0.781365741075653	-1.44827505854772E-5	100.003334832165
514	3.03322731284977		3.89370587198659		0.996767938137054	3.03099025418199	3.8811211658309	0.780957389546765	-2.149346950222E-5	100.004949176715
512	3.09288924357592		3.97112698608528		0.997182905673981	3.09065218490814	3.95993993888027	0.780479560955681	9.53710437633607E-6	99.9978040246752
510	3.15092426249967		4.04620005331836		0.997619688510895	3.14868720383189	4.03656882893616	0.780040508973987	3.75139530707933E-5	99.9913624661444
508	3.22301004383723		4.13909686785101		0.998028337955475	3.22077298516945	4.13093595974674	0.779671487661336	1.95229869193689E-5	99.9955047671735
506	3.2990696495279		4.23671254692309		0.998419940471649	3.29683259086012	4.23001828098003	0.779389679161457	1.51067181517958E-5	99.9965216100953
504	3.37244268108568		4.33095294994196		0.998628556728363	3.3702056224179	4.32501328574292	0.779235900506371	5.12651581634761E-5	99.9881964577751
502	3.44554061498831		4.42499731930777		0.998702704906464	3.44330355632053	4.41925678407986	0.779158968251143	7.41690502913728E-5	99.9829234032605
500	3.54405317281282		4.55208677004694		0.998041987419128	3.54181611414504	4.54317371897055	0.7795907295721	8.08547850702909E-5	99.9813842306694
498	3.70692514106226		4.76258023750512		0.996963620185852	3.70468808239448	4.74811922710583	0.780243272166657	6.31921555903603E-5	99.9854505269929
496	3.93578943364235		5.05587474129111		0.996381938457489	3.93355237497457	5.03758226742763	0.780841317551958	7.4549010938086E-5	99.9828359290669
494	4.15847900419183		5.33733930409372		0.996273338794708	4.15624194552405	5.31744884087227	0.781623306570875	6.49318926351512E-5	99.9850499968202
492	4.25658399178059		5.45819976785357		0.997795403003693	4.25434693311281	5.44616662913065	0.781163563809636	1.04917267447855E-4	99.9758448242302
490	4.28260728081423		5.49071575142256		0.999251484870911	4.28037022214645	5.48660585969208	0.780149026849664	1.14498373466158E-4	99.9736392502648
488	4.38125582684433		5.61942078208316		1.00037968158722	4.37901876817655	5.62155436475501	0.778969388899148	1.51236909006695E-4	99.9651824774877
486	4.64937848390097		5.96362758847521		1.00112116336823	4.64714142523319	5.97031378133331	0.778374737984939	1.59022730672468E-4	99.9633903660531
484	4.97798134842327		6.37873786701483		1.00167071819305	4.97574428975549	6.38939493247779	0.778750467350734	1.30576894062368E-4	99.9699380785257
482	5.18391104824645		6.63407171139721		1.00221765041351	5.18167398957867	6.64878375532674	0.779341633035864	1.24062176516062E-4	99.9714377079745
480	5.23408915050989		6.693278496392		1.00296688079834	5.23185209184211	6.71313664789042	0.779345388937703	1.57874935686244E-4	99.9636545592093
478	5.36798050927477		6.86807040149284		1.00383603572845	5.36574345060698	6.89441655698116	0.778273753298781	2.00589141978E-4	99.9538233079042
476	5.75354866991861		7.36386368752257		1.00481963157654	5.75131161125083	7.39935478951113	0.777272042611544	2.39135928722831E-4	99.9449520744655
474	6.40385588824859		8.19275518060471		1.0059871673584	6.40161882958081	8.24180656902298	0.776725196832627	3.00421412447298E-4	99.9308493335096
472	7.092293100041		9.065611840278		1.00742340087891	7.09005604137322	9.13290950319516	0.776319533100898	3.60107634458087E-4	99.9171165202496
470	7.63386782368827		9.74010459599633		1.00905096530914	7.63163076502049	9.82826193680343	0.776498511546857	3.52245755067343E-4	99.9189253008399
468	7.83230843850532		9.97464589614088		1.01076722145081	7.83007137983754	10.0820451093857	0.776635225778574	4.23877290637797E-4	99.9024462615604
466	7.57635662725342		9.63014641584676		1.01238787174225	7.57411956858563	9.7494434264802	0.776877123879069	4.52158824417912E-4	99.8959407623366
464	7.14813775689418		9.08208684021217		1.01368534564972	7.1459006982264	9.20637832980582	0.776190206640913	4.84610655633439E-4	99.8884765065656
462	6.7172123003829		8.53511865579919		1.01450979709625	6.71497524171512	8.65896148764532	0.775494295857085	4.92140830745614E-4	99.8867445683757
460	6.30945666611978		8.02311104816959		1.01470625400543	6.307219607452	8.14110094911425	0.774737918971295	5.26416561846663E-4	99.878861539141
458	5.85264663188742		7.45620737705743		1.01420342922211	5.85040957321963	7.56211108276328	0.773647663885126	5.46696623744846E-4	99.874197647965
456	5.44885244404777		6.96583002399885		1.01296448707581	5.44661538537999	7.05613842928753	0.771897467710245	5.85738830177294E-4	99.8652195606543
454	5.14519213313674		6.60951295060291		1.01096189022064	5.14295507446896	6.6819656979655	0.769676964375149	5.80672050044215E-4	99.8663846642492
452	4.88927850923444		6.31191387013641		1.00839364528656	4.88704145056666	6.36489382824817	0.767811935664563	5.83988194930571E-4	99.8656221168298
450	4.56764843239461		5.92377361289828		1.00559830665588	4.56541137372683	5.956936706172	0.766402531857791	6.63948359743891E-4	99.8472370420084
448	4.18254437932103		5.44992007663064		1.00291681289673	4.18030732065325	5.46581646584624	0.764809310150526	7.24730552356398E-4	99.8332637829089
446	3.91762506885616		5.12408195631304		1.00074863433838	3.91538801018838	5.12791801208533	0.763543410982919	7.57929873589433E-4	99.8256323944107
444	3.83936636649459		5.03075362886144		0.999439060688019	3.83712930782681	5.02793167345963	0.763162579969299	8.25079825458398E-4	99.8101987002456
442	3.87119747927304		5.07051464320076		0.999334216117859	3.86896042060526	5.06713876835549	0.763539464276584	8.92583613981819E-4	99.7946860855738
440	3.93486467215266		5.1459409049186		1.00051915645599	3.93262761348488	5.1486124454305	0.763822807633378	9.90330820364681E-4	99.7722276972691
438	3.98809770792252		5.20464944021587		1.00279068946838	3.98586064925474	5.21917399264624	0.763695683430131	0.00104975899518495	99.7585759563914
