Wavelength	I1	I1 dark	R1	R1dark	XCorrect	I1c	R1c	I1c/R1c	Abs	Percent T
nm	uA	uA	uA	uA		uA	uA	uA/uA	OD	T*100
	Abs Detector Raw	Dark Offset for Abs Detector	Ref Detector Raw	Dark Offset for Ref Detector	Linear interp	Dark subtracted Abs Detector	Corrected Ref Detector	Corrected Intensity 	-Log(T)	% Transmittance
700	0.406625868947807	0.00222138450116407	0.494609380183532	8.62741466889569E-9	1.02473187446594	0.404404484446643	0.506841988443122	0.797890651658245	4.25553250551567E-4	99.9020607347367
698	0.411888791829985		0.501702495154813		1.02452707290649	0.409667407328821	0.514007779991826	0.79700623857354	4.67434510578349E-4	99.8924271275413
696	0.437504940456219		0.533080921566578		1.0254340171814	0.435283555955054	0.546639302037933	0.796290267333996	5.09183821617776E-4	99.8828247960914
694	0.479063072637854		0.583260676004742		1.02713179588318	0.47684168813669	0.599085576751295	0.795949204323186	5.26799974145703E-4	99.8787733621813
692	0.523892928157529		0.636896990769388		1.0291953086853	0.521671543656364	0.655491386136346	0.795848053368399	5.25497017638431E-4	99.8790730157536
690	0.560550956951104		0.68083469294884		1.03111636638641	0.55832957244994	0.702019785807349	0.795318855305254	5.25098357586111E-4	99.8791646996603
688	0.585927009940903		0.711610282049875		1.03234148025513	0.583705625439739	0.734624803029698	0.794562915698534	5.70261067571795E-4	99.8687787071988
686	0.603590262950252		0.733063983511626		1.03273642063141	0.601368878449088	0.757061865515753	0.79434575408101	6.01713292571494E-4	99.8615463298819
684	0.611726887297998		0.742799250055508		1.03241991996765	0.609505502796834	0.766880733387225	0.794785259638376	6.01960038260845E-4	99.8614895932663
682	0.60852066876739		0.739097138253895		1.03160095214844	0.606299284266226	0.762453302652854	0.795195302003006	5.85009350476001E-4	99.8653873033146
680	0.605809905932668		0.736494467741458		1.03062152862549	0.603588521431504	0.759047045276318	0.795192505112484	6.20954646041678E-4	99.8571220766932
678	0.614196903532869		0.74731274491052		1.02938807010651	0.611975519031705	0.769274815368478	0.795522623132505	6.47497203407367E-4	99.85101934569
676	0.629869316518623		0.766818484484773		1.027991771698	0.627647932017459	0.788283083567364	0.796221490859663	6.70551312366718E-4	99.8457189901074
674	0.644021471472591		0.784448613714957		1.02646279335022	0.641800086971427	0.805207306417842	0.797061926606985	6.27125927892172E-4	99.8557031268967
672	0.656706304185576		0.80049721500675		1.02487134933472	0.654484919684412	0.82040665204066	0.797756719861378	7.05486658385645E-4	99.8376875630583
670	0.669761744243836		0.816991833987565		1.02321696281433	0.667540359742672	0.835959894189149	0.798531561601005	7.40285821196661E-4	99.8296880859764
668	0.68095270160597		0.831152096757756		1.02134227752686	0.678731317104806	0.848890766662245	0.799550830047912	7.3364465681936E-4	99.8312146778746
666	0.689768623765004		0.842492460669774		1.01928961277008	0.68754723926384	0.858743805203972	0.800643026589905	7.67721288420724E-4	99.8233817944147
664	0.697985653479767		0.85319115024917		1.01711809635162	0.695764268978603	0.867796149790388	0.801760032176521	7.83017764638382E-4	99.8198659332677
662	0.707465503389303		0.865497011453003		1.01487874984741	0.705244118888139	0.878374516224315	0.802896834848562	8.1374816301319E-4	99.812802993606
660	0.720179493065814		0.881780075071082		1.01273846626282	0.71795810856465	0.893012592071285	0.803973107366149	8.8450992702912E-4	99.796541321083
658	0.736780029639356		0.902850610030458		1.01078748703003	0.734558645138191	0.912590090555733	0.804916306609108	8.68935736068801E-4	99.8001201790359
656	0.758001844927905		0.92966773826615		1.00910043716431	0.755780460426741	0.938128112395997	0.805626065822144	8.87754119305031E-4	99.7957958408322
654	0.787813758401781		0.967078068551612		1.00764882564545	0.785592373900617	0.974475071390094	0.806169800505994	9.10402497155038E-4	99.7905916440201
652	0.81858299515158		1.00537068173619		1.00644826889038	0.816361610650416	1.01185357354349	0.806798169216853	9.39875934618476E-4	99.7838195755606
650	0.840024518221703		1.03205142456828		1.00542259216309	0.837803133720539	1.03764780986085	0.807406063751908	9.51452930079385E-4	99.7811596720216
648	0.848528808489705		1.04305640123705		1.00459063053131	0.846307423988541	1.04784467913143	0.807664953445252	9.59892746309537E-4	99.7792206041696
646	0.851461508297698		1.0475796908261		1.00393974781036	0.849240123796534	1.05170688195781	0.807487464773102	9.75745698855984E-4	99.775578452483
644	0.859339856748789		1.05830397526341		1.00340497493744	0.857118472247625	1.06190746511859	0.807149869835323	0.00102365688631084	99.7645718591056
642	0.874685718973378		1.07822537176209		1.00290107727051	0.872464334472214	1.08135337822815	0.806826290127092	0.00102643737676141	99.7639331368493
640	0.894842608353472		1.10407397770973		1.00236213207245	0.892621223852308	1.10668193761504	0.806574313280971	0.00109590886116442	99.7479757749484
638	0.918107054812495		1.13369876209031		1.00166118144989	0.915885670311331	1.13558203280191	0.80653413303088	0.00110312902985485	99.7463174733696
636	0.94254508008669		1.16483077443586		1.00077903270721	0.940323695585526	1.16573820707338	0.806633676309054	0.00115267467858044	99.7349387561056
634	0.964726386807704		1.19313036726524		0.999723374843597	0.962505002306539	1.19280030876576	0.80692886750045	0.00116535501227512	99.7320267830213
632	0.98547980187652		1.21983040941366		0.998525381088257	0.983258417375356	1.21803161580813	0.807251966709415	0.00120617214002212	99.7226539179319
630	1.00597778716496		1.24618572734846		0.997326076030731	1.00375640266379	1.2428535128576	0.807622452911551	0.00120353937312056	99.7232584554274
628	1.02870178046358		1.27542927393759		0.995982348918915	1.02648039596241	1.27030503554355	0.808058196449793	0.00124137206450614	99.7145716424625
626	1.05236524941951		1.30577877520604		0.994540870189667	1.05014386491834	1.2986503507883	0.808642498945839	0.00125329056500628	99.711835176967
624	1.0749567184924		1.33467973756802		0.993056654930115	1.07273533399123	1.32541258702479	0.809359549239865	0.0012376678667615	99.7154221346561
622	1.09284386347801		1.35781595479829		0.991701006889343	1.09062247897685	1.34654744098807	0.809939884610805	0.00124953370041115	99.7126977379691
620	1.10624928099882		1.37555264624635		0.990615010261536	1.10402789649765	1.36264309023017	0.810210615247144	0.00128141957477915	99.7053771065275
618	1.11670034390778		1.38971704626112		0.990181982517242	1.11447895940661	1.37607277146213	0.809898271747967	0.00131779674659747	99.6970259809938
616	1.12697605281353		1.40379513505327		0.990417122840881	1.12475466831237	1.39034273017275	0.808976552258175	0.00133288636105008	99.6935620559107
614	1.13686285321724		1.41737695825997		0.991193890571594	1.13464146871607	1.40489537311279	0.807634141610187	0.00136961042441634	99.6851322967196
612	1.14830763090964		1.4328898178359		0.992228329181671	1.14608624640847	1.42175386129238	0.806107356280835	0.00138291178074049	99.6820792366069
610	1.16130820834417		1.4503915089093		0.993061780929565	1.159086823843	1.44032836631503	0.804737899322524	0.00140188710825852	99.6777239918165
608	1.17714427818023		1.47147115594797		0.993314802646637	1.17492289367906	1.46163407230093	0.80384202581531	0.00140541147853694	99.6769150941743
606	1.19692484873295		1.49753354832805		0.992952227592468	1.19470346423179	1.48697926414018	0.803443257779793	0.00148180840604442	99.6593824276696
604	1.21820873161064		1.52547324689054		0.992071509361267	1.21598734710948	1.51337853797392	0.803491867102478	0.00149595078795249	99.6561371686167
602	1.24253457849361		1.55714705141391		0.990931510925293	1.24031319399245	1.54302607184128	0.803818688891233	0.0015474000473111	99.6443319742814
600	1.27046216392514		1.59327968723708		0.989943742752075	1.26824077942397	1.57725724829368	0.804079854948196	0.00156051302413129	99.6413233841565
598	1.30032198201496		1.63180367249105		0.989287972450256	1.29810059751379	1.61432373806056	0.804114172955993	0.00156960642504205	99.6392370831493
596	1.3335611861715		1.67470923168334		0.988997519016266	1.33133980167034	1.65628326667597	0.803811659790678	0.00161048345906862	99.6298591956071
594	1.36757042816677		1.71858492871731		0.989019095897675	1.3653490436656	1.69971330389068	0.803281965576364	0.00163426898050665	99.6244027982585
592	1.40007411502983		1.76062504601853		0.989216387271881	1.39785273052866	1.74163913882845	0.802607554782534	0.00164368421879338	99.6222430256545
590	1.43208033579286		1.80212033675566		0.989368975162506	1.4298589512917	1.78296194215976	0.801957079106053	0.00166609791201674	99.6171017105606
588	1.46234773022195		1.84158259903037		0.989350080490112	1.46012634572079	1.82196988404435	0.801399824721384	0.00170971091248245	99.6070984000341
586	1.49040459374791		1.87843775025029		0.98914635181427	1.48818320924675	1.85804983923651	0.800938262161073	0.00176320266757342	99.5948306171918
584	1.51595445232596		1.91219253480216		0.988804697990417	1.51373306782479	1.89078495334376	0.800584468978259	0.00178996521527483	99.5886934697203
582	1.54190578560568		1.94654720479335		0.988359570503235	1.53968440110451	1.92388855076684	0.800298125632493	0.00183186426721758	99.5790860011953
580	1.56708384993941		1.97995160341663		0.987916827201843	1.56486246543825	1.95602749753739	0.800020688568228	0.00185046749900872	99.5748205702034
578	1.59373221268224		2.01529906562139		0.987463474273682	1.59151082818108	1.99003420851975	0.799740437308812	0.00185507006833915	99.5737653010119
576	1.62146062021117		2.05211963760843		0.987005352973938	1.61923923571	2.02545305874715	0.799445451829719	0.00190099439197044	99.5632364634506
574	1.65098748682996		2.09148770761338		0.986572206020355	1.6487661023288	2.06340363305302	0.799051661981072	0.00195577714214024	99.5506781553441
572	1.67970172433917		2.12965408929681		0.986202597618103	1.67748033983801	2.10027038638415	0.798697325217244	0.00199469765209966	99.5417570437197
570	1.70805785591157		2.16745778130321		0.985956788063049	1.7058364714104	2.13701970380972	0.798231512966102	0.00201172713305012	99.5378539058914
568	1.7369542622339		2.2061201553224		0.985915243625641	1.73473287773274	2.17504748189622	0.79756092323115	0.00206430506585135	99.5258040686778
566	1.7651724848713		2.24402145287227		0.986069560050964	1.76295110037013	2.21276123827146	0.796719984912289	0.00212213163381895	99.5125530310207
564	1.7962307662789		2.28556349372191		0.98643833398819	1.79400938177773	2.25456743646085	0.795722209398141	0.00212369437351112	99.5121949515535
562	1.82791203117634		2.32790003389228		0.986926913261414	1.82569064667518	2.29746718631582	0.794653633161492	0.00218173238552278	99.4988972830064
560	1.86227693629368		2.37363854783211		0.987455606460571	1.86005555179252	2.34386268324856	0.793585547944519	0.00220540653987888	99.4934735713333
558	1.89722897519774		2.42031972252539		0.987996757030487	1.89500759069658	2.39126802830816	0.792469755904908	0.00225225439050899	99.4827416735195
556	1.9343997115088		2.46976667808202		0.988564491271973	1.93217832700764	2.44152363114987	0.791382193625402	0.00229607929802869	99.4727033189776
554	1.97004717089536		2.51741515107372		0.989157021045685	1.96782578639419	2.49011886303748	0.790253756800111	0.00234324459535521	99.461900960047
552	2.00681947581152		2.56645838818244		0.989745855331421	2.00459809131036	2.54014154404518	0.789167869802261	0.00237280132798873	99.4551321225349
550	2.04367498807787		2.61560641983701		0.990298986434937	2.0414536035767	2.59023237793359	0.78813531209324	0.00241840938919779	99.4446882468336
548	2.08325903239085		2.66924812259743		0.990660965442657	2.08103764788969	2.64431991359153	0.786984069965729	0.00248435202017182	99.4295898589279
546	2.12516958097639		2.72490063514549		0.990815043449402	2.12294819647523	2.69987253265881	0.786314231799887	0.00252356596969874	99.4206124229768
544	2.16624093748295		2.77947041595208		0.990794599056244	2.16401955298179	2.75388426781393	0.785806280341479	0.00258493189275171	99.4065652570854
542	2.20500084755944		2.83115486398774		0.990690350532532	2.20277946305828	2.8047977960688	0.785361235717487	0.00262385434577272	99.3976566152497
540	2.24719708950322		2.88729795458372		0.990695714950562	2.24497570500205	2.86043370284447	0.784837524033368	0.00265848524209919	99.3897309039047
538	2.29654674187513		2.95285162206517		0.990894556045532	2.29432535737397	2.92596458856574	0.784126153248701	0.00272249170758644	99.3750838916062
536	2.3479291954709		3.02083456950987		0.991336405277252	2.34570781096974	2.9946632745225	0.783296015590855	0.00277162824318059	99.3638411258567
534	2.40499939506257		3.09624242490267		0.991989970207214	2.40277801056141	3.0714414222752	0.782296544266023	0.00284034233630138	99.3481210179444
532	2.46353084953122		3.17362780432602		0.992775619029999	2.46130946503005	3.15070029944549	0.781194411116548	0.00290684387460633	99.3329094567994
530	2.52115849916573		3.24965845681669		0.993559658527374	2.51893711466457	3.22872953811353	0.780163555023665	0.00292983066082131	99.3276520012655
528	2.58348017860421		3.33175599254633		0.994197487831116	2.58125879410304	3.31242342927848	0.779265951112204	0.00297784290977706	99.3166717089623
526	2.64556563508689		3.41373739058113		0.994674623012543	2.64334425058573	3.39555794345864	0.778471254091832	0.0030440810938054	99.3015251791311
524	2.70913672482687		3.49735460216108		0.995013654232025	2.7069153403257	3.47991557425709	0.777868107016817	0.00310028674309371	99.2886745770982
522	2.77340784649012		3.58203793640804		0.995269954204559	2.77118646198896	3.56509472434121	0.777310752241244	0.00316974358263556	99.2727965809612
520	2.83788155040918		3.66670088115688		0.99559760093689	2.83566016590802	3.65055859204353	0.776774319439331	0.00323157824821842	99.2586631681364
518	2.9033110254332		3.75278002181352		0.995971322059631	2.90108964093203	3.73766127113193	0.776177783508309	0.00329217539955333	99.2448145633736
516	2.96556512674694		3.83465539145331		0.996365666389465	2.96334374224578	3.82071896588328	0.775598459009065	0.00336193580107379	99.2288742224665
514	3.02571128223077		3.91337698068203		0.996767938137054	3.0234898977296	3.90072869558791	0.775108994673087	0.00339685831592095	99.220895344874
512	3.08050825466806		3.98535822288238		0.997182905673981	3.0782868701669	3.97413108424244	0.774581110918159	0.00346326762652626	99.2057243312625
510	3.13957966556483		4.063122027785		0.997619688510895	3.13735828106367	4.05345052313375	0.773996934996054	0.00354172174556336	99.1878047051223
508	3.21241261299015		4.15828224562892		0.998028337955475	3.21019122848899	4.15008350974438	0.773524489555806	0.00362513797660141	99.1687552383771
506	3.28751801007587		4.25610441132878		0.998419940471649	3.2852966255747	4.24937950438622	0.773123846007072	0.00367482865392112	99.1574092947308
504	3.36003246103311		4.35045556216872		0.998628556728363	3.35781107653194	4.34448915054385	0.772889736900738	0.0037577576956028	99.138476878542
502	3.434517036682		4.44731750964827		0.998702704906464	3.43229565218083	4.44154801784738	0.772770132933137	0.00380079465714801	99.1286531124136
500	3.53190816459813		4.57479025741115		0.998041987419128	3.52968678009696	4.56583275192176	0.773065281160664	0.00387573564728807	99.1115491453764
498	3.69284058207406		4.78549653098327		0.996963620185852	3.6906191975729	4.7709659373147	0.773558068966248	0.00396319217317569	99.091592458326
496	3.91912329413563		5.07873820086021		0.996381938457489	3.91690190963446	5.060363004895	0.774035757088091	0.00403604647439304	99.0749709180265
494	4.14264022721185		5.36496531810592		0.996273338794708	4.14041884271069	5.34497190139194	0.77463809335133	0.00412640793927406	99.0543590323457
492	4.24097675401243		5.48796224144258		0.997795403003693	4.23875536951126	5.47586348776085	0.774079810240949	0.00421421911980504	99.0343329871602
490	4.25810495969819		5.5102729703949		0.999251484870911	4.25588357519703	5.50614843909019	0.77293295345671	0.00429792114800479	99.0152478361412
488	4.35927671034561		5.64381826358123		1.00037968158722	4.35705532584445	5.64596110882683	0.771711891361185	0.004345076422997	99.0044974398982
486	4.63021604407369		5.99641840677868		1.00112116336823	4.62799465957253	6.00314136279982	0.770928815411747	0.00447169257560326	98.9756374337996
484	4.95517820473434		6.41239233653179		1.00167071819305	4.95295682023318	6.42310562842761	0.771115579714617	0.00456495062939998	98.9543862212097
482	5.15825778813261		6.66806508753842		1.00221765041351	5.15603640363145	6.68285251619058	0.771532274749426	0.00465794862974259	98.9331988122081
480	5.20511233835104		6.72450898191925		1.00296688079834	5.20289095384987	6.74445978984296	0.771431829378735	0.00472485279779136	98.9179590755302
478	5.33684427705243		6.89962587387276		1.00383603572845	5.33462289255126	6.9260930765774	0.770221080422936	0.00481343414530772	98.897785223617
476	5.72467758567399		7.40394436081494		1.00481963157654	5.72245620117283	7.43962863617826	0.769185732382532	0.00493166508060182	98.8708652725816
474	6.37323424624355		8.24072118101401		1.0059871673584	6.37101286174238	8.29005974919957	0.768512297195147	0.00507365477115508	98.8385453848575
472	7.04547004396307		9.10346664781905		1.00742340087891	7.04324865946191	9.17104532144211	0.767987553501087	0.00519702646522142	98.8104719290013
470	7.59047683640673		9.79198076015202		1.00905096530914	7.58825545190557	9.88060762961445	0.767994817359392	0.00528576977300091	98.7902831569863
468	7.77941383234649		10.0190088992689		1.01076722145081	7.77719244784532	10.1268857780846	0.767974737571918	0.00542728530784993	98.7580974331798
466	7.51556201549213		9.66232989678787		1.01238787174225	7.51334063099097	9.78202559154628	0.768076157711555	0.00554835889370772	98.7305692675167
464	7.08502388808087		9.1072368851838		1.01368534564972	7.0828025035797	9.23187256112592	0.767211901668179	0.0056863389221388	98.6992064860658
462	6.66545073395812		8.57101668750671		1.01450979709625	6.66322934945696	8.69538039179843	0.766295325704414	0.00580363582211956	98.6725528025259
460	6.25835396011905		8.05627929285377		1.01470625400543	6.25613257561789	8.17475697371889	0.765298906833658	0.00600202428100508	98.6274888515063
458	5.80366601872676		7.48808260041263		1.01420342922211	5.8014446342256	7.59443904288693	0.763906932620563	0.00618377486843144	98.5862222584304
456	5.39874091517649		6.99198673400551		1.01296448707581	5.39651953067533	7.08263424691346	0.76193677981142	0.0063437295478412	98.5499187257024
454	5.0982091762181		6.63725646386345		1.01096189022064	5.09598779171694	6.71001333186458	0.759460158971229	0.00649673750800768	98.5152043401359
452	4.8417971542559		6.33655295319601		1.00839364528656	4.83957576975473	6.38973972232481	0.757397950474566	0.00664611821732782	98.4813247006542
450	4.52321242370799		5.94811337955282		1.00559830665588	4.52099103920682	5.98141273359981	0.75584000646047	0.00680622792383658	98.445024654308
448	4.13870853401843		5.46979988424352		1.00291681289673	4.13648714951726	5.48575425843582	0.754041642160018	0.00697754177179419	98.4061992240922
446	3.87785444288827		5.14665852623485		1.00074863433838	3.87563305838711	5.15051148290162	0.752475374776508	0.00721853682159445	98.3516076298854
444	3.7957769661279		5.04847442957188		0.999439060688019	3.79355558162673	5.04564253317623	0.751847868072947	0.00741762858788777	98.3065310549662
442	3.82870563749572		5.09182559939565		0.999334216117859	3.82648425299455	5.08843553535923	0.75199621306088	0.0076493384086174	98.2540954054966
440	3.88978070298184		5.16687344878027		1.00051915645599	3.88755931848068	5.16955585585662	0.752010313241212	0.00790529807529595	98.1962045573082
438	3.94329560849217		5.2288573540314		1.00279068946838	3.941074223991	5.24344946252948	0.751618615217814	0.00814447811731973	98.1421396149939
436	3.99403183688018		5.28748553701528		1.00572633743286	3.99181045237901	5.31776345469479	0.750655888774979	0.00836929659029165	98.0913481429434
