Wavelength	I1	I1 dark	R1	R1dark	XCorrect	I1c	R1c	I1c/R1c	Abs	Percent T
nm	uA	uA	uA	uA		uA	uA	uA/uA	OD	T*100
	Abs Detector Raw	Dark Offset for Abs Detector	Ref Detector Raw	Dark Offset for Ref Detector	Linear interp	Dark subtracted Abs Detector	Corrected Ref Detector	Corrected Intensity 	-Log(T)	% Transmittance
700	0.40161048341346	0.00222471215503566	0.494995574851272	6.71005246342233E-9	1.02473187446594	0.399385771258425	0.507237736393686	0.787373932582269	0.00618789742141282	98.5852864302943
698	0.406985950193551		0.502178700362496		1.02452707290649	0.404761238038515	0.514495667083745	0.786714571053194	0.00611196137967886	98.6025254956079
696	0.432106800172049		0.533251202139816		1.0254340171814	0.429882088017014	0.546813915496324	0.786157915580521	0.00607079985463407	98.6118712801668
694	0.473197079924477		0.583531680548431		1.02713179588318	0.470972367769442	0.599363936104331	0.785786964145036	0.00610733312126012	98.603576304263
692	0.51753662090378		0.637439787679779		1.0291953086853	0.515311908748745	0.65605003214343	0.785476539137009	0.00622243743081512	98.5774461250218
690	0.553400271977424		0.681107721512202		1.03111636638641	0.551175559822388	0.702301312004546	0.784813512948158	0.00629990498887189	98.5598638777176
688	0.578564093992259		0.712029256000274		1.03234148025513	0.576339381837223	0.735057329197214	0.784074056463958	0.00634146850957563	98.5504318008775
686	0.595826230059851		0.733296856576351		1.03273642063141	0.593601517904815	0.757302363991208	0.783836874318415	0.00638560150311661	98.5404176174843
684	0.604147955725217		0.743499105446342		1.03241991996765	0.601923243570181	0.767603280013341	0.784159290668638	0.00644747165889728	98.5263804215477
682	0.600918031140016		0.73979720163376		1.03160095214844	0.59869331898498	0.76317549068004	0.784476606358919	0.00647881779386573	98.5192693255212
680	0.598303730143852		0.737137241645891		1.03062152862549	0.596079017988816	0.75970950387634	0.784614401883067	0.00643695722082967	98.5287658123565
678	0.60674097704899		0.748124049087717		1.02938807010651	0.604516264893954	0.770109964183422	0.784973955680403	0.00644478414998111	98.5269901261518
676	0.621993061103881		0.767394537104166		1.027991771698	0.619768348948845	0.788875262891197	0.78563542058274	0.00648339128277828	98.5182318395935
674	0.63597050621029		0.785132879787944		1.02646279335022	0.633745794055254	0.805909682050616	0.78637322291836	0.00649047377874684	98.5166252124788
672	0.648897788403977		0.801662594452964		1.02487134933472	0.646673076248942	0.821601018011239	0.787088942287673	0.00655214670464417	98.5026361396359
670	0.661273816092656		0.817556382419053		1.02321696281433	0.659049103937621	0.836537551682456	0.787829670780626	0.00660003900301003	98.4917742527567
668	0.672150733022602		0.831551825384464		1.02134227752686	0.669926020867566	0.849299028366522	0.788798760497879	0.00661350363779227	98.4887207135866
666	0.681247164307618		0.84340186665322		1.01928961277008	0.679022452152583	0.859670755231037	0.789863384348925	0.00665466496010171	98.4793866464
664	0.688896065644242		0.85353377907893		1.01711809635162	0.686671353489206	0.868144645723653	0.790964221079568	0.00667058177117127	98.4757774615421
662	0.698836221103321		0.866559681408192		1.01487874984741	0.696611508948286	0.879452999325828	0.792096347937065	0.00669548309819086	98.470131275968
660	0.71135493631021		0.882824555141277		1.01273846626282	0.709130224155174	0.894070379157403	0.793148101856902	0.00677174268555991	98.4528420111102
658	0.727538274586891		0.903675087472326		1.01078748703003	0.725313562431855	0.913423463975357	0.794060576542649	0.00676602674820025	98.4541378000382
656	0.748866818296738		0.93103740331852		1.00910043716431	0.746642106141703	0.939510243933922	0.794714172583535	0.00681030527435219	98.4441004127978
654	0.778005652972222		0.968053305645822		1.00764882564545	0.775780940817187	0.975457769834829	0.795299360779654	0.00680629435698325	98.4450095953732
652	0.80858238202297		1.00666855113455		1.00644826889038	0.806357669867935	1.01315981388244	0.795883984756526	0.00685501431507583	98.4339664715795
650	0.829926853091528		1.03371460299087		1.00542259216309	0.827702140936493	1.03932000894948	0.796388151684978	0.00691866947952871	98.4195399213672
648	0.837256262148029		1.043495936523		1.00459063053131	0.835031549992993	1.04828623408765	0.796568268131215	0.00696812895288411	98.4083320851107
646	0.840372962762829		1.04832747806394		1.00393974781036	0.838148250607793	1.0524576172137	0.796372449492763	0.00699530768256026	98.4021737527386
644	0.848798894689046		1.05982448541734		1.00340497493744	0.84657418253401	1.06343315449537	0.796076536597856	0.00702301415395091	98.3958962379171
642	0.86383477531932		1.0795515469183		1.00290107727051	0.861610063164284	1.08268340264388	0.795809800963288	0.00699719497967873	98.4017461310598
640	0.883801516713395		1.10545664418933		1.00236213207245	0.88157680455836	1.10806787205737	0.795598200064693	0.00704650399302239	98.3905744082388
638	0.906800341929489		1.1351471930115		1.00166118144989	0.904575629774454	1.13703287175023	0.795558028486939	0.00705401791704042	98.388872123417
636	0.93094418338575		1.16638953391356		1.00077903270721	0.928719471230714	1.16729818279455	0.795614595241921	0.00712628268527327	98.3725019924835
634	0.952846611088947		1.19479757635563		0.999723374843597	0.950621898933911	1.19446705858101	0.795854429056606	0.00716696989948046	98.3632863202968
632	0.973798659908472		1.22209723257167		0.998525381088257	0.971573947753436	1.22029509818037	0.796179505434536	0.00720428974459031	98.3548341178323
630	0.994028255774904		1.24851884689293		0.997326076030731	0.991803543619868	1.24518039573002	0.796513940486827	0.00721854256978228	98.3516063281339
628	1.01583614753347		1.27697441788048		0.995982348918915	1.01361143537843	1.27184397354688	0.796962093197412	0.00724634685554201	98.3453098893203
626	1.03882021163183		1.3069225355305		0.994540870189667	1.0365954994768	1.29978786908357	0.797511289444224	0.0072730133289963	98.339271493272
624	1.06118204672878		1.33609151734754		0.993056654930115	1.05895733457374	1.32681456623419	0.798120070070765	0.00731093096869356	98.3306860047456
622	1.07819556970391		1.35853909838765		0.991701006889343	1.07597085754888	1.34726458511521	0.798633668127532	0.00735470468722481	98.3207754877168
620	1.09214804063299		1.37723774192396		0.990615010261536	1.08992332847795	1.3643123732015	0.798881069971045	0.00739721813685983	98.3111512559387
618	1.1029448968098		1.39205582423404		0.990181982517242	1.10072018465476	1.37838858917057	0.798555787027452	0.00744300766376768	98.3007864366995
616	1.11292436078735		1.40596824013774		0.990417122840881	1.11069964863231	1.39249501255712	0.797632766089889	0.00746583424254932	98.2956198693786
614	1.12333908289492		1.42041127362119		0.991193890571594	1.12111437073989	1.40790296986138	0.796300877787246	0.00750708581650224	98.2862836778498
612	1.13399798882063		1.43512170165361		0.992228329181671	1.13177327666559	1.42396840154621	0.794802241002443	0.00751671322154153	98.2841048995918
610	1.1463091859056		1.45207703371101		0.993061780929565	1.14408447375057	1.44200219848048	0.793399951093109	0.00756417275135887	98.2733650381789
608	1.16201958998946		1.47324555779634		0.993314802646637	1.15979487783443	1.46339661382732	0.792536259053613	0.00755697875746539	98.2749929286378
606	1.18079241800189		1.49840239645033		0.992952227592468	1.17856770584685	1.48784199072249	0.792132305174791	0.0076392937723751	98.2563679143633
604	1.20314051361571		1.52802049231681		0.992071509361267	1.20091580146068	1.51590558949083	0.792210154633739	0.00763703106964768	98.2568798378164
602	1.22670788553552		1.55912367447167		0.990931510925293	1.22448317338048	1.54498477181441	0.792553555037612	0.00767688106339936	98.2478643965079
600	1.25419405861529		1.59516922439525		0.989943742752075	1.25196934646025	1.57912778567818	0.792823328051679	0.00768327430368246	98.246418102329
598	1.28419743655655		1.63441464988822		0.989287972450256	1.28197272440152	1.61690674849274	0.792855076890831	0.00769351183276145	98.2441021882442
596	1.31682652812915		1.67713051134614		0.988997519016266	1.31460181597411	1.65867790815159	0.792560032007109	0.00773261755051913	98.235256270725
594	1.34985473985489		1.72039974194248		0.989019095897675	1.34763002769986	1.70150819072217	0.792020887732479	0.00776565047989368	98.2277846702058
592	1.38314340126785		1.76405889187695		0.989216387271881	1.38091868911282	1.74503595731966	0.791341108657658	0.00778320048040023	98.2238153293291
590	1.41478560929947		1.80568138833023		0.989368975162506	1.41256089714443	1.78648513800357	0.790692778291454	0.00780945106259988	98.2178784488906
588	1.44399616826478		1.84426528146782		0.989350080490112	1.44177145610975	1.82462399802672	0.790174555233837	0.00783591336351749	98.2118940489454
586	1.47158381088291		1.88092918700792		0.98914635181427	1.46935909872788	1.86051423671264	0.789759664147533	0.00786729480687266	98.2047976667217
584	1.49615722997417		1.91389111596275		0.988804697990417	1.49393251781914	1.89246452027115	0.789411110124848	0.00789389158794791	98.1987836563314
582	1.52142076606238		1.94779329337385		0.988359570503235	1.51919605390734	1.92512013623612	0.789143506065854	0.00792767698858556	98.1911447008716
580	1.54721970441707		1.98245477582625		0.987916827201843	1.54499499226204	1.95850042557643	0.788866304079208	0.00794827966463046	98.1864866809224
578	1.57410731511192		2.01867959492354		0.987463474273682	1.57188260295688	1.99337235962265	0.788554429065347	0.00797245051244237	98.1810222214722
576	1.60166658999804		2.05567239074928		0.987005352973938	1.59944187784301	2.02895964700741	0.788306401362926	0.00799477726039002	98.1759749397715
574	1.63089551866731		2.09508075522522		0.986572206020355	1.62867080651227	2.06694843585339	0.787959088993836	0.00802696687934488	98.1686984712906
572	1.65868241853374		2.13257733147263		0.986202597618103	1.6564577063787	2.10315329730232	0.787606737228054	0.00806750520543035	98.1595355434891
570	1.68765154401895		2.1716565192672		0.985956788063049	1.68542683186391	2.14115947989705	0.787156140253948	0.00807970866846373	98.1567773471882
568	1.7146744086195		2.20840292086316		0.985915243625641	1.71244969646447	2.17729809713083	0.786502178420618	0.008128242633229	98.1458085884585
566	1.74375318423198		2.24790117603886		0.986069560050964	1.74152847207694	2.21658691707811	0.785680208909927	0.00818202926023424	98.1336541510001
564	1.77376055246393		2.28860422763404		0.98643833398819	1.7715358403089	2.25756693484659	0.784710217431174	0.00817586675539973	98.135046647184
562	1.80538770171406		2.3313108718444		0.986926913261414	1.80316298955903	2.30083343597983	0.783699924280321	0.00820980090784923	98.1273790398951
560	1.83879384829031		2.37637989773102		0.987455606460571	1.83656913613528	2.34656964646881	0.782661251456568	0.00822532378780066	98.1238717600042
558	1.87444974555244		2.42443619448911		0.987996757030487	1.8722250333974	2.39533509115307	0.781612994487609	0.00824318001705057	98.1198374321395
556	1.91000990682486		2.47250142303804		0.988564491271973	1.90778519466982	2.44422710480151	0.78052697759636	0.00829443524815833	98.108258058245
554	1.94530795074181		2.5201819610837		0.989157021045685	1.94308323858677	2.49285567448133	0.779460784062863	0.00831554369720022	98.1034897203416
552	1.98209252748034		2.56979918218952		0.989745855331421	1.9798678153253	2.54344808296491	0.778418804215325	0.00832887778095637	98.1004777086263
550	2.01764616456409		2.61780675411308		0.990298986434937	2.01542145240905	2.59241136863575	0.777431188889461	0.00835723610690306	98.0940722058796
548	2.05763512737004		2.67156251186102		0.990660965442657	2.05541041521501	2.64661269059326	0.776619269801154	0.00824213129349055	98.1200743697792
546	2.09922159430123		2.72832191292629		0.990815043449402	2.09699688214619	2.70326238805159	0.775728205820828	0.00841011929703136	98.0821282096688
544	2.13829485135664		2.78082304890941		0.990794599056244	2.1360701392016	2.75522445114228	0.775279900813894	0.00844190236173282	98.0749505072324
542	2.17912863462196		2.83564024182439		0.990690350532532	2.17690392246692	2.80924141850957	0.774908097297621	0.00844311665014196	98.0746762898198
540	2.21974959862731		2.89044023221539		0.990695714950562	2.21752488647228	2.86354674572888	0.774398004774962	0.00847401890754685	98.0676980269255
538	2.26711364591402		2.95396220649583		0.990894556045532	2.26488893375898	2.92706506253201	0.773774714730726	0.00849389716829929	98.0632094351036
536	2.31855282652278		3.02285143022897		0.991336405277252	2.31632811436774	2.99666266387847	0.772969257530577	0.00853532411851043	98.0538557220976
534	2.37352560837944		3.09608838531494		0.991989970207214	2.37130089622441	3.07128861845116	0.772086635550468	0.00854571903433604	98.0515088136724
532	2.43238271263645		3.17457774047006		0.992775619029999	2.43015800048141	3.15164337479244	0.771076454880132	0.00856852946107048	98.0463589945614
530	2.49132965688708		3.25309893156256		0.993559658527374	2.48910494473205	3.23214785693222	0.770108625876593	0.00856350135769391	98.0474941461765
528	2.55335299272699		3.33564389442383		0.994197487831116	2.55112828057196	3.31628877346425	0.769272055251993	0.00858358725409542	98.0429596048655
526	2.61372723564981		3.4160911691174		0.994674623012543	2.61150252349478	3.39789918914401	0.768563861999879	0.00860670148220036	98.0377416545533
524	2.67704312331749		3.50021646362801		0.995013654232025	2.67481841116245	3.48276316740101	0.768016164923014	0.00863589130624744	98.0311525580307
522	2.74067268661492		3.58461759948367		0.995269954204559	2.73844797445988	3.56766218740065	0.76757490777317	0.00864364966456552	98.0294013176945
520	2.80548015142507		3.67080316479433		0.99559760093689	2.80325543927003	3.65464281770027	0.767039510863614	0.00870870197863453	98.0147187414968
518	2.86751948035386		3.75300036623873		0.995971322059631	2.86529476819882	3.73788072977004	0.766555964554571	0.00870951596877828	98.0145350344879
516	2.93005672469532		3.83574515632276		0.996365666389465	2.92783201254028	3.82180477209402	0.766086230756386	0.00872121671238482	98.0118943665932
514	2.98908322874131		3.91372037949376		0.996767938137054	2.98685851658627	3.9010709864246	0.76565090124745	0.0087288368943912	98.0101746534661
512	3.04722189474998		3.99053895453236		0.997182905673981	3.04499718259495	3.97929722319464	0.765209787508755	0.0087496533310207	98.0054769799291
510	3.10508707818764		4.06690199509261		0.997619688510895	3.1028623660326	4.05722149485455	0.764775196515082	0.00874716834926751	98.0060377573023
508	3.17528418953575		4.15934627807659		0.998028337955475	3.17305947738071	4.15114544619324	0.764381667303546	0.00878894334240619	97.9966109632255
506	3.25188903448205		4.25990569399088		0.998419940471649	3.24966432232702	4.25317478270976	0.764056143551338	0.00879862527577737	97.9944263025366
504	3.32361957055361		4.3537547264434		0.998628556728363	3.32139485839857	4.34778379211661	0.763928248782958	0.00882272828878412	97.9889878374216
502	3.39852447560286		4.4521159490071		0.998702704906464	3.39629976344782	4.44634023412925	0.763841628082908	0.00884780018707685	97.9833310788725
500	3.49390776473495		4.57768997569884		0.998041987419128	3.49168305257991	4.56872679443818	0.764257354331315	0.00885227835492255	97.9823207424332
498	3.65511557659079		4.7901996672325		0.996963620185852	3.65289086443576	4.7756547949675	0.76489843199829	0.0088523421325798	97.9823063533892
496	3.88050264562709		5.08441701506528		0.996381938457489	3.87827793347205	5.06602127471121	0.765547107516467	0.00882515021186412	97.9884413853266
494	4.10006258127321		5.36838015808627		0.996273338794708	4.09783786911817	5.34837401733083	0.766183863701299	0.00889225660174304	97.9733015601098
492	4.19487961627595		5.48756699655233		0.997795403003693	4.19265490412091	5.47546911613944	0.76571610855455	0.0089321757901659	97.9642965298622
490	4.21846237421958		5.51776706216183		0.999251484870911	4.21623766206454	5.51363692333198	0.764692655808138	0.00895282548530678	97.9596386655554
488	4.31548211541844		5.6458209885582		1.00037968158722	4.31325740326341	5.64796459611969	0.763683505775999	0.00888685809284974	97.9745194273615
486	4.58446283099028		5.99770900923746		1.00112116336823	4.58223811883525	6.00443341415432	0.763142465371252	0.00888035068430373	97.97598747503
484	4.90639343367026		6.41314658269765		1.00167071819305	4.90416872151522	6.42386113664682	0.763430064441764	0.00891516959396252	97.9681327118455
482	5.105736899295		6.66603492866732		1.00221765041351	5.10351218713996	6.68081785705844	0.763905302664101	0.00897252211997392	97.9551959854338
480	5.15483836769856		6.72566822169827		1.00296688079834	5.15261365554352	6.74562247087127	0.763845542467485	0.0090168581636771	97.9451964934798
478	5.28940964495531		6.90353034538661		1.00383603572845	5.28718493280027	6.93001252770819	0.762940169539461	0.00893835341412224	97.9629030461637
476	5.67609353576296		7.4088430086319		1.00481963157654	5.67386882360792	7.44455089559952	0.76215058546537	0.00892209741784833	97.9665699460614
474	6.31927925472236		8.24424212450956		1.0059871673584	6.31705454256733	8.29360177510193	0.761678063869867	0.00895302773306422	97.9595930464802
472	6.99284475120461		9.11355876015853		1.00742340087891	6.99062003904957	9.18121235350879	0.761404896203926	0.00893554288667598	97.9635370130458
470	7.52779884875153		9.79342780041066		1.00905096530914	7.52557413659649	9.88206776891899	0.76153840598684	0.00895224846517331	97.9597688185361
468	7.71701016860846		10.0223429437267		1.01076722145081	7.71478545645342	10.1302557228755	0.761558806361859	0.00907077501716134	97.9330375339819
466	7.45837370442257		9.6684926521719		1.01238787174225	7.45614899226753	9.7882646922947	0.761743702960648	0.00914377026635556	97.9165785503974
464	7.03601137137467		9.11762808856775		1.01368534564972	7.03378665921963	9.24240597366351	0.76103415920731	0.00919751967253794	97.9044608917427
462	6.61643988867619		8.57407040594403		1.01450979709625	6.61421517652116	8.69847842101585	0.760387605324279	0.00916478320384851	97.9118410617678
460	6.21414609521156		8.05857373582837		1.01470625400543	6.21192138305653	8.17708516130024	0.759674292308431	0.00920568730861824	97.9026196514756
458	5.76628484963034		7.49152212488807		1.01420342922211	5.7640601374753	7.59792742234941	0.758635851208612	0.00919086372147948	97.9059613765999
456	5.36971160339345		7.0003313572444		1.01296448707581	5.36748689123842	7.09108705585471	0.756934282284235	0.00920449236267883	97.9028890274489
454	5.06906466762062		6.64028616825338		1.01096189022064	5.06683995546558	6.71307624947982	0.754771697380646	0.00918612684522283	97.9070292486829
452	4.81658582810964		6.34155697961832		1.00839364528656	4.81436111595461	6.39478575270337	0.752857296887445	0.0092575797466155	97.8909222840827
450	4.50074911437767		5.95342651054121		1.00559830665588	4.49852440222264	5.98675561105287	0.751412734122196	0.00935755249512989	97.8683908022131
448	4.1159794118887		5.47027699699702		1.00291681289673	4.11375469973366	5.48623276476091	0.749832330512308	0.00940871037814574	97.856863037016
446	3.86235224756259		5.15180488100695		1.00074863433838	3.86012753540756	5.15566169233043	0.748716220296202	0.00939358691540115	97.8602707717498
444	3.78641806630051		5.05875948436853		0.999439060688019	3.78419335414547	5.0559218205976	0.748467537359624	0.00937463236806966	97.8645419234454
442	3.81846268568869		5.09858239023404		0.999334216117859	3.81623797353365	5.09518782955127	0.748988673469521	0.00938974180424169	97.8611372006376
440	3.88191483950666		5.17415971678001		1.00051915645599	3.87969012735163	5.17684590848778	0.749431255234122	0.00939729321666004	97.8594356285181
438	3.93635208388049		5.23425374448459		1.00279068946838	3.93412737172545	5.2488609145554	0.749520217008587	0.00935865409775189	97.8681425560491
436	3.99142414833892		5.29561293895095		1.00572633743286	3.98919943618388	5.32593739880474	0.74901357967128	0.0093205009475837	97.8767407356637
