Wavelength	I1	I1 dark	R1	R1dark	XCorrect	I1c	R1c	I1c/R1c	Abs	Percent T
nm	uA	uA	uA	uA		uA	uA	uA/uA	OD	T*100
	Abs Detector Raw	Dark Offset for Abs Detector	Ref Detector Raw	Dark Offset for Ref Detector	Linear interp	Dark subtracted Abs Detector	Corrected Ref Detector	Corrected Intensity 	-Log(T)	% Transmittance
700	0.404618890759462	0.00223370932926271	0.492398789419002	7.2951316541997E-9	1.02473187446594	0.402385181430199	0.504576726990541	0.7974707510395	5.49830527150268E-4	99.8734769504386
698	0.409655055008419		0.499214871099061		1.02452707290649	0.407421345679156	0.511459143164454	0.796586298483973	5.91499440309696E-4	99.8638949277053
696	0.434829847270919		0.530116519629054		1.0254340171814	0.432596137941656	0.543599504816766	0.795799359838405	5.8919025748059E-4	99.86442591443
694	0.476338341086054		0.58024550408545		1.02713179588318	0.474104631756791	0.595988599171367	0.795492786969353	6.1429509771498E-4	99.8586533151883
692	0.521098943887593		0.633886439211406		1.0291953086853	0.51886523455833	0.652392941967495	0.795326253827226	6.29193034396568E-4	99.8552278459737
690	0.557571186361298		0.677604405439211		1.03111636638641	0.555337477032036	0.698688984861776	0.794827869143951	6.73012129406698E-4	99.8451532418402
688	0.583530442943267		0.709114659689054		1.03234148025513	0.581296733614004	0.732048469922941	0.79406864094012	6.70597805740612E-4	99.8457083011295
686	0.600951516904606		0.730276741748424		1.03273642063141	0.598717807575343	0.754183380809687	0.793862371950656	7.09226387432609E-4	99.8368278600039
684	0.609208238720321		0.740186811570605		1.03241991996765	0.606974529391059	0.764183601231195	0.794278401699731	6.90889462585604E-4	99.8410432924684
682	0.605693629734966		0.736040357729751		1.03160095214844	0.603459920405703	0.759299926328023	0.7947583023273	6.82630204471676E-4	99.8429420520024
680	0.602994356064111		0.733406667742528		1.03062152862549	0.600760646734849	0.755864693494411	0.794799190788359	6.88176462376758E-4	99.8416669928115
678	0.61152670841884		0.744422024613327		1.02938807010651	0.609292999089577	0.766299143751969	0.795111157382147	7.26332946752021E-4	99.8328954338418
676	0.626716815028816		0.763311635415252		1.027991771698	0.624483105699553	0.784678072948886	0.795846254952294	6.95965310189005E-4	99.8398764000027
674	0.641169133837504		0.781404361360835		1.02646279335022	0.638935424508241	0.802082496010306	0.796595646565551	7.49962417316539E-4	99.8274637869103
672	0.654125569708208		0.797671680725672		1.02487134933472	0.651891860378946	0.817510844274839	0.797410658151203	7.29653567690407E-4	99.8321321132163
670	0.666952470667321		0.81382828889053		1.02321696281433	0.664718761338058	0.83272290254645	0.79824724323705	7.58501221387227E-4	99.8255010661989
668	0.677761773320944		0.82757181065803		1.02134227752686	0.675528063991682	0.84523407046367	0.799220106710923	7.74972127367706E-4	99.8217151897201
666	0.686976313736348		0.839420442484183		1.01928961277008	0.684742604407085	0.85561253033514	0.800295203880282	8.11832924525115E-4	99.8132431689971
664	0.695268357066346		0.850171982405164		1.01711809635162	0.693034647737083	0.864725300895416	0.801450642209094	8.05467976585047E-4	99.814706026064
662	0.704707260837224		0.862367945115596		1.01487874984741	0.702473551507961	0.875198894643724	0.802644468368443	8.23853593355388E-4	99.8104805151148
660	0.717668912866261		0.878946041879281		1.01273846626282	0.715435203536998	0.890142458992537	0.803731129000101	8.18567089651868E-4	99.8116954780221
658	0.73408374481314		0.899809277504299		1.01078748703003	0.731850035483878	0.909515951041049	0.804658823900986	8.4610858206619E-4	99.8053659573736
656	0.755463445373745		0.926826852234834		1.00910043716431	0.753229736044482	0.935261374404268	0.805368164085965	8.75163540695281E-4	99.7986890505743
654	0.784542491418909		0.96328596135147		1.00764882564545	0.782308782089646	0.970653960365623	0.80596053179958	8.86964900658998E-4	99.7959771942174
652	0.815722333260216		1.00209082335086		1.00644826889038	0.813488623930953	1.00855256709024	0.806590207070653	8.795292572548E-4	99.7976858358946
650	0.837824226200747		1.02961475747315		1.00542259216309	0.835590516871484	1.03519793105333	0.807179469554441	8.97960292899621E-4	99.7934506089888
648	0.845434519045188		1.03948948277549		1.00459063053131	0.843200809715925	1.04426138760348	0.807461445693233	9.08764370909511E-4	99.7909680473647
646	0.848486797991825		1.04414556608396		1.00393974781036	0.846253088662563	1.04825922896777	0.807293716360482	9.12998492105029E-4	99.7899951476139
644	0.85647536231913		1.05497258067035		1.00340497493744	0.854241652989867	1.05856472854725	0.806981028134394	9.45833255893652E-4	99.7824508264307
642	0.871714279682366		1.07475092062287		1.00290107727051	0.869480570353104	1.07786884877386	0.806666387420133	9.74319103948601E-4	99.7759062014455
640	0.89196936523845		1.10064291411542		1.00236213207245	0.889735655909188	1.1032427707308	0.806473134938211	9.67293161636756E-4	99.7775203721541
638	0.914644117251212		1.12950897469719		1.00166118144989	0.912410407921949	1.13138528674619	0.806454192581906	9.72042059599119E-4	99.7764293367109
636	0.939451116006505		1.16104653607583		1.00077903270721	0.937217406677242	1.16195102200122	0.806589424968259	0.00100492994096384	99.7688738386237
634	0.961591485978884		1.18935322072084		0.999723374843597	0.959357776649621	1.18902420840702	0.806844612470007	0.00100919290795879	99.767894527703
632	0.982410126501917		1.21612490124036		0.998525381088257	0.980176417172654	1.21433157317758	0.80717362442269	0.00107480131368771	99.7528238363147
630	1.00327932667018		1.24300693613896		0.997326076030731	1.00104561734092	1.23968322282282	0.807501141349226	0.00110702094780037	99.7454236035193
628	1.02535622008031		1.27138387506553		0.995982348918915	1.02312251075105	1.26627589099958	0.807977564781251	0.0011120535437786	99.7442677621947
626	1.04891719880227		1.30153108235192		0.994540870189667	1.04668348947301	1.29442584796587	0.808608303919319	0.00109603642596279	99.7479464760992
624	1.07177444593149		1.33086754088103		0.993056654930115	1.06954073660223	1.32162686105791	0.809260743797313	0.00111914069063693	99.7426400728376
622	1.08963453919697		1.35398155305205		0.991701006889343	1.0874008298677	1.34274486223672	0.809834288292364	0.00112208283349448	99.7419643651915
620	1.10320742450932		1.371870588719		0.990615010261536	1.10097371518006	1.3589955900947	0.810137812958859	0.00113672016980176	99.7386027473619
618	1.11397890179876		1.38643234450141		0.990181982517242	1.1117451924695	1.37282032028092	0.809825711380786	0.00115643518353455	99.7340751667138
616	1.12412319403211		1.40027619069383		0.990417122840881	1.12188948470285	1.38685750874435	0.808943584780096	0.00117958041427405	99.7287600941796
614	1.13402248035073		1.41380191836665		0.991193890571594	1.13178877102147	1.40135181673254	0.80764070628631	0.00118327793263698	99.7279110220238
612	1.1451969413187		1.4290897427309		0.992228329181671	1.14296323198944	1.4179833204421	0.80604843196116	0.00122571018617488	99.7181676947134
610	1.15801473160703		1.44635833115348		0.993061780929565	1.15578102227776	1.43632317295307	0.804680342169433	0.00123068183796771	99.7170261624348
608	1.17456442260911		1.46834864290831		0.993314802646637	1.17233071327984	1.45853243520056	0.803774180804307	0.001260394757157	99.7102041034153
606	1.19271630523639		1.492306817298		0.992952227592468	1.19048259590713	1.48178937124376	0.803408783333277	0.00129465609885295	99.702338310117
604	1.21510353236674		1.52150135171786		0.992071509361267	1.21286982303748	1.50943813525665	0.803524036333728	0.00128625815585932	99.7042662707146
602	1.23900284773849		1.55255180888796		0.990931510925293	1.23676913840923	1.53847250254216	0.803894210891387	0.00129941362857501	99.7012461151673
600	1.26685742526391		1.58865005938224		0.989943742752075	1.26462371593465	1.57267417848639	0.804123151021515	0.00135258733475598	99.6890397426435
598	1.29690048028208		1.62741783923784		0.989287972450256	1.29466677095282	1.609984887292	0.804148399883714	0.00135343378244457	99.688845447117
596	1.32962929672658		1.6695911859556		0.988997519016266	1.32739558739731	1.65122153346664	0.803887037864947	0.00137938095023709	99.6828896589618
594	1.36317684391825		1.7128588399669		0.989019095897675	1.36094313458899	1.69405009408938	0.803366523420635	0.00139651289815707	99.678957469026
592	1.39635206022574		1.75571761759012		0.989216387271881	1.39411835089648	1.73678463152563	0.802700764153962	0.00141403694386909	99.6749354437904
590	1.42847500227362		1.79722239647701		0.989368975162506	1.42624129294435	1.77811607332398	0.80210809313374	0.00141329950786279	99.675104692887
588	1.45905152990835		1.837061137679		0.989350080490112	1.45681782057909	1.81749657721053	0.801551892226938	0.00144711800590169	99.6673432977232
586	1.48675229320662		1.87341551657144		0.98914635181427	1.48451858387735	1.85308211643294	0.801107825019086	0.00149604341512197	99.6561159137647
584	1.51191363390761		1.9066351645945		0.988804697990417	1.50967992457835	1.88528980089132	0.800768096164637	0.00152591302507452	99.6492620690263
582	1.53731335961742		1.94021671494109		0.988359570503235	1.53507965028815	1.91763175185216	0.800508047911434	0.0015275468648109	99.6488871837247
580	1.56387172555321		1.97537553625868		0.987916827201843	1.56163801622395	1.95150672510583	0.800221693388865	0.0015601745186725	99.641401048383
578	1.59025240030883		2.01038328241913		0.987463474273682	1.58801869097956	1.98518005347564	0.799936856205696	0.00160018602319986	99.6322215195401
576	1.61776513072398		2.04678470110631		0.987005352973938	1.61553142139472	2.02018744917675	0.79969382150803	0.00159900461530755	99.6324925486639
574	1.64775508938194		2.08663490377159		0.986572206020355	1.64552138005268	2.05861599297584	0.799333817315774	0.00161082852746035	99.6297800348001
572	1.67521736625914		2.12316809736059		0.986202597618103	1.67298365692987	2.09387388560242	0.798989694858602	0.00165692910077392	99.6192048458336
570	1.70455635305221		2.1622204221745		0.985956788063049	1.70232264372295	2.13185589533881	0.798516751270564	0.00168828167991946	99.6120133976391
568	1.73342739879772		2.20075938498625		0.985915243625641	1.73119368946846	2.16976221801775	0.797872538793695	0.00171811902062036	99.6051699869817
566	1.76039969013751		2.23702360697175		0.986069560050964	1.75816598080825	2.20586087675675	0.797043004540369	0.00176811582826767	99.5937039101769
564	1.7912261989912		2.27815061815057		0.98643833398819	1.78899248966194	2.24725509314641	0.79607895655368	0.00177707060366075	99.5916503955876
562	1.82377217993087		2.32144247870474		0.986926913261414	1.8215384706016	2.29109405262223	0.795051808770919	0.0017932725722835	99.5879350578065
560	1.85935667826749		2.36865938243735		0.987455606460571	1.85712296893823	2.33894597977957	0.793999940568635	0.00180238923417816	99.5858445407927
558	1.89391555029361		2.41461516650852		0.987996757030487	1.89168184096435	2.38563194677949	0.792947899410071	0.00182772071714868	99.5800360775011
556	1.93055847288608		2.46347220319732		0.988564491271973	1.92832476355682	2.43530113810469	0.791821895610644	0.0018993131014396	99.563621904799
554	1.96564522670847		2.51024302257173		0.989157021045685	1.96341151737921	2.48302450309173	0.790733846941288	0.00191380074950875	99.5603006131046
552	2.00278183028228		2.55957599262701		0.989745855331421	2.00054812095302	2.53332972288806	0.789691173193336	0.00191416478322656	99.5602171598426
550	2.03850885979322		2.60723805486144		0.990298986434937	2.03627515046396	2.58194519589952	0.788659323094016	0.00196821310247691	99.5478275767351
548	2.07944791649562		2.66244976963481		0.990660965442657	2.07721420716636	2.637585052002	0.78754397155447	0.00200278884637518	99.539902532033
546	2.12160705657656		2.71825901107347		0.990815043449402	2.1193733472473	2.69329191293536	0.786908146520754	0.00202884524015314	99.5339306092919
544	2.15970489296279		2.76882152026146		0.990794599056244	2.15747118363353	2.74333340079777	0.786441481376682	0.00207733727661717	99.5228175656279
542	2.20218003552144		2.82506919882276		0.990690350532532	2.19994632619217	2.79876878763316	0.78604075331732	0.00210509522768861	99.516456763607
540	2.2427300710415		2.8791399411698		0.990695714950562	2.24049636171223	2.85235159523268	0.78549094910211	0.00214250794969051	99.5078841905657
538	2.29103503253718		2.94316242814355		0.990894556045532	2.28880132320792	2.91636362037649	0.784813425601725	0.00218189431986776	99.4988601830974
536	2.341538792101		3.00977061410035		0.991336405277252	2.33930508277174	2.98369517405942	0.784029515853335	0.00219796379432017	99.4951786608167
534	2.39829373478288		3.08454298835086		0.991989970207214	2.39606002545361	3.05983569988034	0.783068197271937	0.00224261468953747	99.484949840016
532	2.45781956086714		3.16304073255342		0.992775619029999	2.45558585153788	3.14018971403539	0.781986464245261	0.00231487601399419	99.4683981302945
530	2.51684306761747		3.24074066839078		0.993559658527374	2.51460935828821	3.21986918461397	0.78096631077566	0.00236682545108611	99.4565006310946
528	2.58004143913477		3.32388311284522		0.994197487831116	2.57780772980551	3.30459623338219	0.780067381232586	0.00236918385499041	99.4559605414267
526	2.64020202896349		3.4028508540411		0.994674623012543	2.63796831963423	3.38472938315496	0.779373480421451	0.00239596619301898	99.4498274194676
524	2.70393779155437		3.4866631189556		0.995013654232025	2.70170408222511	3.46927740380929	0.778751240606652	0.00245748303602067	99.435741571256
522	2.76851071422303		3.57149717811181		0.995269954204559	2.76627700489377	3.55460382564043	0.778223717911903	0.00250941705435923	99.4238515079789
520	2.83075698050075		3.65300945430353		0.99559760093689	2.82852327117149	3.63692744164136	0.777723316331812	0.00252595322465262	99.4200659235229
518	2.89721034374183		3.74002144126054		0.995971322059631	2.89497663441256	3.72495409211788	0.777184513639624	0.0025593709947815	99.4124161162463
516	2.95983949012619		3.82197893980625		0.996365666389465	2.95760578079693	3.80808858601794	0.776664122693021	0.0026066391741463	99.4015967565687
514	3.01992315687829		3.90059967642118		0.996767938137054	3.01768944754903	3.88799268969285	0.776156152646323	0.0026567406398149	99.3901301627189
512	3.07610544143445		3.97397740111296		0.997182905673981	3.07387173210519	3.96278232464997	0.775685233323205	0.00268554755086756	99.3835377978501
510	3.13620432753746		4.05254830487052		0.997619688510895	3.13397061820819	4.04290197030251	0.775178483482668	0.00275296139955305	99.3681120738519
508	3.20561548824268		4.14322403880808		0.998028337955475	3.20338177891341	4.13505499394805	0.774689038864488	0.00280376434295917	99.3564888607282
506	3.28067333988086		4.24055605652312		0.998419940471649	3.2784396305516	4.2338557182369	0.77433900650654	0.00283862025730815	99.348514957215
504	3.35417172825905		4.33574777789756		0.998628556728363	3.35193801892979	4.32980153849492	0.774155117533389	0.00289222902607026	99.3362522573967
502	3.42658020152741		4.42970697786767		0.998702704906464	3.42434649219815	4.42396033345381	0.77404547827958	0.00293376490880476	99.3267522020259
500	3.52617791559759		4.55951817401364		0.998041987419128	3.52394420626833	4.55059057278536	0.774392718901838	0.00298625995222932	99.314746875523
498	3.6860659595801		4.76829581741017		0.996963620185852	3.68383225025084	4.75381745296932	0.774920847654731	0.00303587984984783	99.3034004130032
496	3.91475166141572		5.06403774456378		0.996381938457489	3.91251795208645	5.04571573708161	0.775413867121538	0.00310377114918625	99.2878779732057
494	4.1375379867725		5.34830973486418		0.996273338794708	4.13530427744324	5.32837838919344	0.776090580547003	0.00315002024714339	99.2773051234714
492	4.23604476597624		5.47099351029043		0.997795403003693	4.23381105664698	5.45893216715178	0.775574952574652	0.00322312038506717	99.2605962444232
490	4.25628153722952		5.49645638015563		0.999251484870911	4.25404782790025	5.49234219210904	0.774541658021988	0.00324728861059324	99.2550726059084
488	4.35505736315694		5.62717153888813		1.00037968158722	4.35282365382768	5.62930806501167	0.773243106178922	0.00335557172399782	99.2303283160758
486	4.62310108015981		5.97473474926316		1.00112116336823	4.62086737083055	5.98143339569558	0.772535120788249	0.00342952294168665	99.2134329163391
484	4.94568832346216		6.3861288844883		1.00167071819305	4.9434546141329	6.39679829889148	0.77280138956227	0.00346100288772253	99.2062416660402
482	5.14886175451631		6.64080017628919		1.00221765041351	5.14662804518705	6.65552714223489	0.773286313044595	0.00351161603123783	99.1946807381833
480	5.19888143392882		6.70080388886493		1.00296688079834	5.19664772459956	6.72068436793947	0.773231927002818	0.00357806725530749	99.179504161075
478	5.33399584895383		6.87955750706593		1.00383603572845	5.33176213962457	6.90594772813588	0.772053648466258	0.00368549394001225	99.154974243868
476	5.71737092442014		7.37672781006732		1.00481963157654	5.71513721509087	7.41228091302195	0.771036241361343	0.00373739108141053	99.1431261719112
474	6.36237638495881		8.20601342874885		1.0059871673584	6.36014267562955	8.25514419715322	0.77044598177011	0.00382562077367647	99.1229866596786
472	7.04605174092589		9.08057443787447		1.00742340087891	7.04381803159663	9.14798317478827	0.769985897111104	0.00391785048374965	99.1019384676489
470	7.58347422413002		9.75725452080761		1.00905096530914	7.58124051480076	9.84556708562676	0.770015627222568	0.0039933342002944	99.0847152863968
468	7.7775845354788		9.98927381074589		1.01076722145081	7.77535082614953	10.0968305266252	0.770078373173246	0.00410603533892292	99.0590057462372
466	7.5193125037584		9.63997525444931		1.01238787174225	7.51707879442913	9.75939402411437	0.770240321874009	0.00417824203397602	99.0425373609873
464	7.09250492771444		9.09013273110551		1.01368534564972	7.09027121838517	9.21453433213754	0.769466037329355	0.00426331379443103	99.0231383168319
462	6.6666508428776		8.54711215785464		1.01450979709625	6.66441713354834	8.67112901362304	0.768575478819195	0.00438422423392354	98.9955734612882
460	6.25779058309306		8.02991005092187		1.01470625400543	6.2555568737638	8.14799994036909	0.767741399060495	0.00446626948981812	98.9768733618302
458	5.80647694870351		7.46708311506986		1.01420342922211	5.80424323937425	7.5731412941916	0.766424791760581	0.00462037055391652	98.9417595474863
456	5.40044338286801		6.97067907746505		1.01296448707581	5.39820967353875	7.06105034888473	0.764505194951822	0.00476491414605708	98.9088348425362
454	5.10280242101646		6.62036684366351		1.01096189022064	5.10056871168719	6.69293857084902	0.762082104548611	0.00488739731842858	98.8809437221211
452	4.84683598010716		6.32071575749607		1.00839364528656	4.84460227077789	6.3737695961653	0.760084310812332	0.00497707896404026	98.8605269528877
450	4.52611550925828		5.93016974793883		1.00559830665588	4.52388179992902	5.96336864937326	0.758611795768231	0.00510128782196835	98.8322567402336
448	4.14402955262697		5.45625123833912		1.00291681289673	4.14179584329771	5.47216609500249	0.756884160932221	0.00524847959783949	98.7987660304243
446	3.88187271398099		5.13195697318362		1.00074863433838	3.87963900465173	5.13579892509623	0.755411000554122	0.00540835874000377	98.7624014081064
444	3.80263316915038		5.03742524467012		0.999439060688019	3.80039945982112	5.03459954752818	0.754856354302695	0.00557783210422384	98.723869186728
442	3.83430839250638		5.078570279061		0.999334216117859	3.83207468317712	5.07518904153461	0.755060481849244	0.00574233164139145	98.6864822149812
440	3.89490759974621		5.15160489790979		1.00051915645599	3.89267389041695	5.15427937955235	0.755231450173162	0.00590288598686335	98.6500055481227
438	3.95062598894665		5.21584856314287		1.00279068946838	3.94839227961739	5.23040436948123	0.754892356441076	0.0060850668756704	98.6086318318389
436	4.00360385081429		5.27649032409347		1.00572633743286	4.00137014148502	5.30670528081355	0.754021550047639	0.00627924280340448	98.5645531167398
