Wavelength	I1	I1 dark	R1	R1dark	XCorrect	I1c	R1c	I1c/R1c	Abs	Percent T
nm	uA	uA	uA	uA		uA	uA	uA/uA	OD	T*100
	Abs Detector Raw	Dark Offset for Abs Detector	Ref Detector Raw	Dark Offset for Ref Detector	Linear interp	Dark subtracted Abs Detector	Corrected Ref Detector	Corrected Intensity 	-Log(T)	% Transmittance
700	0.406586618764858	0.00221484470245363	0.493990306817053	6.94227215853935E-9	1.02473187446594	0.404371774062405	0.506207605958677	0.798825954613204	-8.32370471250573E-5	100.019167875192
698	0.411699609490559		0.500881915746659		1.02452707290649	0.409484764788105	0.513167075899176	0.797956034242069	-4.98079014423241E-5	100.011469350817
696	0.43737503510818		0.532303083904422		1.0254340171814	0.435160190405726	0.545841682567315	0.797227848849855	-1.86970394138211E-6	100.000430516169
694	0.478907558112109		0.582389111348519		1.02713179588318	0.476692713409655	0.598190366711584	0.796891324128412	1.30542813329891E-5	99.9969941858158
692	0.523721816567167		0.636033732528396		1.0291953086853	0.521506971864713	0.654602926538874	0.796676810814324	7.34791858444295E-5	99.9830822234202
690	0.560366776325338		0.679866606827407		1.03111636638641	0.558151931622884	0.701021578101046	0.796197933214591	4.53312237825403E-5	99.9895626447169
688	0.586317291733965		0.711260815874138		1.03234148025513	0.584102447031511	0.734264036340181	0.79549374356243	6.17842800103213E-5	99.9857746556848
686	0.603752650738816		0.732399151971314		1.03273642063141	0.601537806036362	0.756375271510796	0.795290153834406	8.56861346260439E-5	99.9802719846023
684	0.611792596807952		0.741993618861312		1.03241991996765	0.609577752105498	0.766048985433963	0.795742522601443	7.91976226287227E-5	99.9817657361175
682	0.608670225557657		0.738393714653941		1.03160095214844	0.606455380855204	0.761727651935773	0.796157759684873	5.96826692648845E-5	99.9862585017744
680	0.605827872804592		0.735544765409015		1.03062152862549	0.603613028102138	0.75806826334346	0.796251547901376	4.29431145189217E-5	99.9901124713145
678	0.614046656575838		0.746149790907505		1.02938807010651	0.611831811873384	0.768077686126358	0.796575428403646	7.31260634152498E-5	99.9831635191416
676	0.630002138408116		0.765950369253866		1.027991771698	0.627787293705663	0.787390669985419	0.797300904920918	8.21897763987434E-5	99.9810768952521
674	0.644141250618747		0.783598314646089		1.02646279335022	0.641926405916293	0.804334507790165	0.798083881393982	7.06509232315015E-5	99.9837333468996
672	0.657306969935881		0.800080058964997		1.02487134933472	0.655092125233427	0.81997912249232	0.798913176279757	7.63738654375432E-5	99.9824158137942
670	0.669924894032848		0.815993758007479		1.02321696281433	0.667710049330394	0.834938647640414	0.799711513196068	9.90234652581413E-5	99.9772016037334
668	0.681163626428595		0.830189675168303		1.02134227752686	0.678948781726141	0.847907806525238	0.800734203059766	9.13435015550162E-5	99.9789695931979
666	0.690248860579492		0.841846358001833		1.01928961277008	0.688034015877038	0.858085241183405	0.80182478716002	1.27169031247647E-4	99.9707225351223
664	0.698457546788428		0.852509309619382		1.01711809635162	0.696242702085975	0.867102639060992	0.802953042375645	1.37272615545168E-4	99.9683968070383
662	0.707704962616862		0.864519559252131		1.01487874984741	0.705490117914408	0.877382522466874	0.804084991265648	1.71538199935478E-4	99.9605096692795
660	0.720707148562504		0.881020311327122		1.01273846626282	0.71849230386005	0.892243151809114	0.805265136978899	1.8713468900611E-4	99.9569199276004
658	0.737059779112396		0.901698394928391		1.01078748703003	0.734844934409943	0.911425447651517	0.806258960953337	1.4510696396407E-4	99.9665934680136
656	0.758707447952429		0.928980417618356		1.00910043716431	0.756492603249976	0.937434538530313	0.806981791428323	1.57527876383478E-4	99.9637344435541
654	0.788075970596496		0.965757383742436		1.00764882564545	0.785861125894043	0.973144286591112	0.807548414682559	1.68358849659384E-4	99.9612414553154
652	0.819325039920249		1.00458145350542		1.00644826889038	0.817110195217796	1.01105925785288	0.808172408166304	2.00760875838147E-4	99.9537837829891
650	0.841416560640269		1.03196762329909		1.00542259216309	0.839201715937816	1.03756355586583	0.808819576587301	1.91805309469111E-4	99.9558449465802
648	0.849110056139876		1.04196863550372		1.00459063053131	0.846895211437422	1.04675192156039	0.809069650595875	2.05220491203938E-4	99.9527573984506
646	0.852090992031661		1.04657630431794		1.00393974781036	0.849876147329207	1.05069954405163	0.808866961198039	2.3443819724393E-4	99.9460331775107
644	0.860556381777732		1.0578835491458		1.00340497493744	0.858341537075279	1.06148560915146	0.808622867493631	2.31819126830892E-4	99.9466359171231
642	0.875870644224052		1.07771674514904		1.00290107727051	0.873655799521598	1.08084327774002	0.808309416836418	2.28840092410809E-4	99.9473215014493
640	0.896123010898686		1.10353624859529		1.00236213207245	0.893908166196232	1.10614294000254	0.808130788408033	2.58642951048463E-4	99.9404629899663
638	0.919321476476062		1.13302320855109		1.00166118144989	0.917106631773608	1.13490535873362	0.808090846268411	2.65693480281924E-4	99.9388405253355
636	0.943842799244666		1.16412629915322		1.00077903270721	0.941627954542212	1.16503318466791	0.808241316156693	2.87976979224612E-4	99.9337128297096
634	0.965948027521722		1.19220912891255		0.999723374843597	0.963733182819269	1.19187932693545	0.808582849823575	2.76081800111191E-4	99.9364500178221
632	0.987291907018768		1.21961526236674		0.998525381088257	0.985077062316315	1.21781678770377	0.808887734396983	3.27033879277996E-4	99.9247260115589
630	1.00761905349704		1.24566628624477		0.997326076030731	1.00540420879459	1.24233546238056	0.809285607019568	3.10107118929326E-4	99.9286206842349
628	1.02935456742011		1.27354780844406		0.995982348918915	1.02713972271765	1.26843113080027	0.80977177063576	3.21379102658002E-4	99.9260271003515
626	1.05352026838274		1.30447845313341		0.994540870189667	1.05130542368028	1.2973571290186	0.810343890795554	3.40490595121899E-4	99.9216298685784
624	1.07665660909182		1.33403544388821		0.993056654930115	1.07444176438937	1.32477276857176	0.811038534214228	3.37673997400729E-4	99.9222779080063
622	1.09399390572853		1.35647858391647		0.991701006889343	1.09177906102607	1.34522117060913	0.81159818539854	3.61252202934571E-4	99.9168531924021
620	1.10740294404258		1.37409834092614		0.990615010261536	1.10518809934013	1.36120243521979	0.811920454110618	3.65866112555151E-4	99.9157916894345
618	1.11802021507137		1.38840501295055		0.990181982517242	1.11580537036892	1.37477362138614	0.811628440501997	3.91012103316606E-4	99.9100066542947
616	1.12848609543821		1.40260589367807		0.990417122840881	1.12627125073575	1.38916488682055	0.810754188664751	3.7961928688539E-4	99.9126276208114
614	1.13834429523731		1.41612129091598		0.991193890571594	1.13612945053485	1.40365076498314	0.809410345420573	4.15529284394514E-4	99.9043666043125
612	1.14937345450439		1.43108287673735		0.992228329181671	1.14715860980193	1.41996096481729	0.807880384197423	4.28732847565876E-4	99.9013293251874
610	1.16270097755059		1.44892960940718		0.993061780929565	1.16048613284814	1.43887661146537	0.806522340832468	4.3994018178035E-4	99.8987513206616
608	1.17836607336014		1.46969868938353		0.993314802646637	1.17615122865769	1.45987345669916	0.805652862075468	4.28165097491214E-4	99.9014599255672
606	1.19740789081711		1.49466551479834		0.992952227592468	1.19519304611465	1.48413144553131	0.805314818787346	4.71328338654936E-4	99.8915315089923
604	1.21955537795818		1.52354529702219		0.992071509361267	1.21734053325572	1.51146587550983	0.80540391482216	4.6369975708104E-4	99.8932861649255
602	1.24388910776629		1.55512789107793		0.990931510925293	1.24167426306384	1.5410252239086	0.805745580149882	5.07567520294724E-4	99.8831965278288
600	1.27146679883699		1.59077704865033		0.989943742752075	1.26925195413453	1.57477977855255	0.805986952220812	5.31683405877261E-4	99.8776502799198
598	1.30186310421057		1.62981764720226		0.989287972450256	1.29964825950812	1.61235898879647	0.80605390520273	5.23236881300337E-4	99.8795928034072
596	1.33465933210687		1.67199042112855		0.988997519016266	1.33244448740441	1.65359437144921	0.805786782061106	5.44646028608871E-4	99.8746692220603
594	1.36862054835488		1.71567576312647		0.989019095897675	1.36640570365243	1.69683608523485	0.805266764151416	5.62510953696545E-4	99.8705609110857
592	1.40207972368317		1.75868522762934		0.989216387271881	1.39986487898072	1.73972024035651	0.804649418054624	5.40226036416934E-4	99.8756856925036
590	1.43472948129009		1.80081338110058		0.989368975162506	1.43251463658764	1.78166888244994	0.804029666061077	5.45150207746604E-4	99.8745532760893
588	1.46572092309835		1.84098929036387		0.989350080490112	1.46350607839589	1.82138289573459	0.80351368283034	5.65677369496433E-4	99.8698327632911
586	1.49236344712425		1.8759032499036		0.98914635181427	1.4901486024218	1.85554284913175	0.803079596420565	6.03651730793431E-4	99.861100606958
584	1.51875858439483		1.91048687356349		0.988804697990417	1.51654373969238	1.88909838916405	0.802787058837877	5.96763007233571E-4	99.862684603534
582	1.54324290060935		1.94285220922142		0.988359570503235	1.54102805590689	1.92023656819588	0.802519898553298	6.27854425805996E-4	99.8555356262411
580	1.57039400523718		1.97873419149992		0.987916827201843	1.56817916053473	1.95482479748402	0.802209570163565	6.63846806242731E-4	99.8472603898475
578	1.59688574754419		2.01368344203635		0.987463474273682	1.59467090284174	1.98843884090536	0.80197131037516	6.45293726946687E-4	99.8515259602984
576	1.62543440841269		2.05123787116063		0.987005352973938	1.62321956371023	2.02458275220635	0.801755108276648	6.48094823143843E-4	99.8508819437627
574	1.65504540823803		2.09059107863559		0.986572206020355	1.65283056353557	2.06251904548694	0.801364994496503	7.00268781998518E-4	99.8388870805831
572	1.68374783638355		2.12846224923246		0.986202597618103	1.6815329916811	2.09909499227864	0.80107522425926	7.03627626729162E-4	99.8381149270398
570	1.71173747062418		2.16577601861462		0.985956788063049	1.70952262592172	2.13536156013247	0.800577596711853	7.37163521917352E-4	99.8304058001004
568	1.74034235942589		2.20384541261815		0.985915243625641	1.73812751472344	2.17280478005018	0.799946470424875	7.67245963953497E-4	99.8234910486735
566	1.76818919159001		2.24095728709425		0.986069560050964	1.76597434688756	2.20973975933247	0.799177522796184	7.84582097557131E-4	99.819506381794
564	1.79844816128957		2.28140483613636		0.98643833398819	1.79623331658711	2.25046517886283	0.798160901780653	7.94724308120113E-4	99.8171752938503
562	1.83121585055542		2.32486206815923		0.986926913261414	1.82900100585296	2.29446893783542	0.797134786047018	8.27844058888204E-4	99.8095634220614
560	1.86592755555118		2.37090242066456		0.987455606460571	1.86371271084873	2.34116088080098	0.796063494026562	8.51448335129619E-4	99.8041388344086
558	1.90157905922108		2.41817846276833		0.987996757030487	1.89936421451862	2.38915247227713	0.794994976904222	8.7056640973367E-4	99.7997454537539
556	1.93718527386621		2.46539271663616		0.988564491271973	1.93497042916376	2.43719968984417	0.793931837931376	8.99135366958853E-4	99.7931805974152
554	1.97373931002198		2.51397132221128		0.989157021045685	1.97152446531953	2.48671237720579	0.792823682944323	9.33198951661662E-4	99.7853536958685
552	2.00965456209452		2.56161732562666		0.989745855331421	2.00743971739206	2.53535012411306	0.791780077354926	9.37626488542344E-4	99.7843364112839
550	2.04691725819712		2.6108946466437		0.990298986434937	2.04470241349467	2.58556631538473	0.790814144401636	9.44767277410798E-4	99.7826957433719
548	2.08738220319769		2.66542252352918		0.990660965442657	2.08516735849524	2.64053004359459	0.789677573846755	0.00100048892868565	99.769894061255
546	2.12990238782346		2.72160699220492		0.990815043449402	2.12768754312101	2.69660914335521	0.789023336349618	0.00102985396731482	99.7631482980246
544	2.16857103437869		2.77263238262604		0.990794599056244	2.16635618967623	2.74710918299595	0.788594862951038	0.0010464836881636	99.7593283057994
542	2.210669680169		2.82836106892679		0.990690350532532	2.20845483546655	2.80203001193001	0.788162448676055	0.00107757623408829	99.7521864686458
540	2.2517795113599		2.88278401229406		0.990695714950562	2.24956466665745	2.85596176123004	0.787673244507512	0.00109215054508548	99.7488389819633
538	2.30066468243861		2.94750253479688		0.990894556045532	2.29844983773615	2.92066420878158	0.78696134626685	0.00115502965353536	99.734397941852
536	2.35054822903916		3.01302558704408		0.991336405277252	2.34833338433671	2.98692194758653	0.786205138783151	0.00116166753314027	99.7328735847755
534	2.40824879033204		3.0887215997374		0.991989970207214	2.40603394562959	3.06398084081522	0.785264030890422	0.00119604912552534	99.724978390562
532	2.46703376042467		3.1659676349606		0.992775619029999	2.46481891572222	3.14309547173483	0.784201096622039	0.00123852615789455	99.7152250684219
530	2.52725244820989		3.24487051550469		0.993559658527374	2.52503760350744	3.22397243445282	0.783206945730598	0.00123895897140061	99.7151256932825
528	2.59002455207565		3.32705488078627		0.994197487831116	2.5878097073732	3.30774959745198	0.782347523937918	0.00126383130279405	99.7094151057986
526	2.65130049271121		3.40748795776356		0.994674623012543	2.64908564800876	3.38934179290294	0.781592949272856	0.00130602852155159	99.6997275417625
524	2.71522725402429		3.4913264508931		0.995013654232025	2.71301240932183	3.47391748311241	0.780966278707099	0.00137397039664731	99.6841315420586
522	2.78013556957021		3.57590554648362		0.995269954204559	2.77792072486776	3.55899134257915	0.780535960184337	0.00137150245571107	99.6846980131011
520	2.84452679151845		3.65993729381912		0.99559760093689	2.84231194681599	3.64382478239406	0.780035297127691	0.00141218212956253	99.675361143169
518	2.90922762321605		3.74465900697218		0.995971322059631	2.90701277851359	3.72957297492228	0.779449228654433	0.00146555159042319	99.6631130173872
516	2.97161864798177		3.82594542116059		0.996365666389465	2.96940380327931	3.81204065220736	0.778953865971992	0.00148713626149467	99.6581598297573
514	3.03363250928746		3.90680772176897		0.996767938137054	3.031417664585	3.89418067060575	0.778448130942384	0.00152995472378549	99.648334701913
512	3.09161441447945		3.98221217797308		0.997182905673981	3.089399569777	3.97099390371879	0.777991516653754	0.00155530822041622	99.6425175430956
510	3.14810962909746		4.05586752999247		0.997619688510895	3.145894784395	4.04621329498679	0.777491089827797	0.00158554199594062	99.6355810869011
508	3.22019485830161		4.14949257844649		0.998028337955475	3.21798001359915	4.14131117449694	0.777043761747763	0.00165372766755467	99.6199391987219
506	3.29763942868025		4.24954129161342		0.998419940471649	3.2954245839778	4.24282675647318	0.776704959482507	0.00166781912635582	99.6167069046139
504	3.37310895023867		4.34688965172624		0.998628556728363	3.37089410553622	4.34092813222808	0.776537644221728	0.00171278422151886	99.6063935273608
502	3.4453586870293		4.44034328341411		0.998702704906464	3.44314384232685	4.43458284092566	0.776430154951878	0.00174872903832725	99.5981498458115
500	3.544956998305		4.56950760268466		0.998041987419128	3.54274215360255	4.56056044238153	0.776821664433971	0.00177057600782238	99.593139736073
498	3.70699916637747		4.78068852506798		0.996963620185852	3.70478432167501	4.76617253201155	0.777308059410812	0.00186294212391436	99.571960435551
496	3.93568108778942		5.07524283391204		0.996381938457489	3.93346624308697	5.0568802860786	0.7778444456982	0.00190431521738945	99.5624751577557
494	4.15809833825285		5.35804522536014		0.996273338794708	4.15588349355039	5.33807759916619	0.778535608811596	0.00194677663581903	99.5527413079514
492	4.254590412687		5.47750705443508		0.997795403003693	4.25237556798454	5.46543135190865	0.778049397052534	0.00199278884406614	99.5421945499073
490	4.27625867807517		5.5050423852295		0.999251484870911	4.27404383337272	5.5009217707808	0.776968662974835	0.00203624167518019	99.5322354692144
488	4.3750107171938		5.63465446967253		1.00037968158722	4.37279587249135	5.6367938372801	0.77575941194992	0.00207321540449296	99.5237621373211
486	4.64799611273762		5.98706837301195		1.00112116336823	4.64578126803517	5.99378084780477	0.775100289116624	0.00212807252015146	99.5111917686808
484	4.96974196669538		6.39597255181675		1.00167071819305	4.96752712199292	6.40665841256748	0.775369436311523	0.00217575049229565	99.5002677721643
482	5.17412394454457		6.65106699753723		1.00221765041351	5.17190909984212	6.66581673205695	0.775885282739563	0.00221453272379259	99.4913828558494
480	5.22474363710072		6.71238016586195		1.00296688079834	5.22252879239826	6.73229499072433	0.775742714719691	0.00230470108608204	99.4707285666197
478	5.36149275389204		6.89224185760119		1.00383603572845	5.35927790918958	6.91868073664719	0.774609801085677	0.00234584715323974	99.4613049253523
476	5.74934060953879		7.3928565697685		1.00481963157654	5.74712576483633	7.42848740775724	0.773660295746731	0.00241257556550223	99.4460240839197
474	6.40269553293472		8.22989538478323		1.0059871673584	6.40048068823227	8.2791691388102	0.773082489428653	0.00249863946858156	99.4263188715506
472	7.08127294909345		9.09488740356247		1.00742340087891	7.079058104391	9.16240239171382	0.772620302159297	0.00258509217519837	99.4065285697103
470	7.61756525088683		9.76765561752085		1.00905096530914	7.61535040618438	9.85606232266158	0.772656478508132	0.00265760868649035	99.3899315067621
468	7.81210442528978		9.99964390535589		1.01076722145081	7.80988958058733	10.107312278697	0.772696970790945	0.00276500983357858	99.3653553878116
466	7.54940696164596		9.64511545124367		1.01238787174225	7.5471921169435	9.76459789736459	0.772913764219666	0.0028216016529025	99.3524081823726
464	7.12026029494127		9.09414544142601		1.01368534564972	7.11804545023882	9.21860195814346	0.772139363708065	0.00290597692045689	99.3331077488975
462	6.69392662401861		8.55163305627407		1.01450979709625	6.69171177931616	8.67571550971921	0.771315261757902	0.00296788756291997	99.318948374426
460	6.28741448434187		8.03943425085377		1.01470625400543	6.28519963963942	8.15766420596243	0.770465599092149	0.00307986480351472	99.2933435634015
458	5.83489216794093		7.47619197546014		1.01420342922211	5.83267732323848	7.5823795319936	0.769241014463558	0.00316179429317938	99.2746136784614
456	5.42990617008502		6.98282599185461		1.01296448707581	5.42769132538256	7.07335474214634	0.767343293705016	0.00327296576381334	99.2492044393217
454	5.12940628021003		6.62990531455388		1.01096189022064	5.12719143550758	6.7025816017669	0.764957704380053	0.00336431031327533	99.2283316884527
452	4.87204361785199		6.32944195562827		1.00839364528656	4.86982877314953	6.38256903926514	0.762988812685091	0.00345207363549025	99.2082814033576
450	4.55082234697507		5.93999884007203		1.00559830665588	4.54860750227261	5.97325276813321	0.761495901619808	0.00356853293315453	99.1816815309539
448	4.1659863358926		5.46427626459912		1.00291681289673	4.16377149119015	5.48021452911647	0.759782572209165	0.00368354479344132	99.1554192599108
446	3.90221878511363		5.13904058756336		1.00074863433838	3.90000394041118	5.14288784286607	0.758329572716825	0.00385283618564019	99.1167752328581
444	3.82711195886627		5.0495067124704		0.999439060688019	3.82489711416381	5.04667423871089	0.757904499724722	0.00393311566760347	99.0984551566994
442	3.85915179309822		5.09047869810897		0.999334216117859	3.85693694839577	5.08708953250173	0.758181455968792	0.00409183396443167	99.0622450161263
440	3.92111570886625		5.16481373574764		1.00051915645599	3.9189008641638	5.16749507519668	0.75837534572099	0.00424488878729091	99.0273394771264
438	3.97531195639609		5.22613863784635		1.00279068946838	3.97309711169363	5.24072316094165	0.758120013150961	0.00440404431301692	98.9910556619476
