Wavelength	I1	I1 dark	R1	R1dark	XCorrect	I1c	R1c	I1c/R1c	Abs	Percent T
nm	uA	uA	uA	uA		uA	uA	uA/uA	OD	T*100
	Abs Detector Raw	Dark Offset for Abs Detector	Ref Detector Raw	Dark Offset for Ref Detector	Linear interp	Dark subtracted Abs Detector	Corrected Ref Detector	Corrected Intensity 	-Log(T)	% Transmittance
700	0.405413726008314	0.00223444159854689	0.492215962952072	7.22599026653652E-9	1.02473187446594	0.403179284409767	0.504389378953233	0.799341344670047	-4.67682886517798E-4	100.107745968582
698	0.410499030248248		0.499107415655154		1.02452707290649	0.408264588649702	0.511349052223878	0.798406855110306	-3.99925555332394E-4	100.092128674618
696	0.435911496107868		0.530188087574982		1.0254340171814	0.433677054509321	0.54367289309396	0.797680112468603	-4.35988770677733E-4	100.10044053216
694	0.477312908554177		0.580068452365905		1.02713179588318	0.475078466955631	0.595806743791723	0.797370073276149	-4.09390596547629E-4	100.094310112528
692	0.522579256287778		0.634162150974126		1.0291953086853	0.520344814689231	0.652676703291396	0.797247415244292	-4.18608047841303E-4	100.096434533301
690	0.559170687275129		0.677871936143521		1.03111636638641	0.556936245676582	0.698964840220793	0.796801517942811	-4.04054213854474E-4	100.093080213727
688	0.584918529344722		0.708973657680152		1.03234148025513	0.582684087746175	0.73190290777173	0.796122110677426	-4.51042564098735E-4	100.103910337862
686	0.602366487414276		0.730082849959836		1.03273642063141	0.600132045815729	0.753983141769356	0.795948891386898	-4.30738360237833E-4	100.099230373516
684	0.610707147593539		0.740072707754955		1.03241991996765	0.608472705994992	0.764065798250357	0.796361658103713	-4.46699487685426E-4	100.102909273432
682	0.606900667083659		0.735671685668424		1.03160095214844	0.604666225485112	0.758919603949854	0.796746087909814	-4.02236119360994E-4	100.092661193213
680	0.604511173121602		0.733397881497071		1.03062152862549	0.602276731523055	0.755855638271945	0.796814498731523	-4.11635122008875E-4	100.094827422366
678	0.612699239307334		0.743944641896635		1.02938807010651	0.610464797708787	0.765807731749705	0.797151520413625	-3.86698091434771E-4	100.089080178927
676	0.628048175356279		0.76295895925981		1.027991771698	0.625813733757732	0.784315524834094	0.797910680003574	-4.29135876631391E-4	100.098861022566
674	0.64273627391162		0.781251978173343		1.02646279335022	0.640501832313073	0.801926080408985	0.798704329439461	-3.98147509779201E-4	100.091718888154
672	0.655854153873477		0.797746422030211		1.02487134933472	0.65361971227493	0.817587444567334	0.799449302478983	-3.7923823867536E-4	100.087360968991
670	0.668479412987692		0.813569797492825		1.02321696281433	0.666244971389145	0.832458409834323	0.800334243150648	-3.75470451463642E-4	100.086492649778
668	0.679762282721755		0.827801918360686		1.02134227752686	0.677527841123208	0.845469089259394	0.801363231051655	-3.88038394454478E-4	100.089389070495
666	0.688321108371149		0.838785722403335		1.01928961277008	0.686086666772602	0.854965566820191	0.802472863701765	-3.68308163908445E-4	100.084842059316
664	0.6970348074424		0.850076076925529		1.01711809635162	0.694800365843854	0.864627753766865	0.803583233150757	-3.48617351290106E-4	100.080304338306
662	0.706162743666444		0.861822319929976		1.01487874984741	0.703928302067897	0.874645151307626	0.804815874203954	-3.4946324806873E-4	100.08049926984
660	0.719034297945691		0.878234877143541		1.01273846626282	0.716799856347144	0.889422235178825	0.805916276877231	-3.60570955963168E-4	100.083059005721
658	0.73578108555155		0.899358503298618		1.01078748703003	0.733546643953003	0.909060314184358	0.806928465039383	-3.77149110198139E-4	100.0868795103
656	0.757499015715671		0.926734308383791		1.00910043716431	0.755264574117124	0.935167988433495	0.807624494698832	-3.39860679454149E-4	100.078286441271
654	0.786674098700806		0.963192539533183		1.00764882564545	0.784439657102259	0.970559824049807	0.808234214588717	-3.36491617424921E-4	100.077510081771
652	0.817444547233202		1.00142514623889		1.00644826889038	0.815210105634655	1.00788259758284	0.80883438963004	-3.27133970372215E-4	100.075353757048
650	0.840091888826902		1.0295248700599		1.00542259216309	0.837857447228355	1.03510755628681	0.809439987312967	-3.1658778697439E-4	100.072923608235
648	0.847557647135412		1.03915338189042		1.00459063053131	0.845323205536865	1.04392374387288	0.809755703420235	-3.23456224665046E-4	100.074506290273
646	0.850953569503904		1.04421063472478		1.00393974781036	0.848719127905357	1.04832455403203	0.809595773218361	-3.23661492869801E-4	100.07455359025
644	0.858921205815216		1.05490219445895		1.00340497493744	0.856686764216669	1.05849410274194	0.809344862666214	-3.24456394298164E-4	100.074736759693
642	0.874247116116807		1.07472763711936		1.00290107727051	0.87201267451826	1.07784549779244	0.809033090831893	-2.98005336346185E-4	100.068641812227
640	0.894407798127595		1.10045000640135		1.00236213207245	0.892173356529048	1.10304940741253	0.808824473802904	-2.97085872635279E-4	100.068429952783
638	0.917487244211756		1.12975076640671		1.00166118144989	0.915252802613209	1.13162748018487	0.808793369407825	-2.85836078450596E-4	100.065837852934
636	0.941913450732243		1.1606529804509		1.00077903270721	0.939679009133696	1.16155715985278	0.808982150523522	-2.81485691629939E-4	100.064835484864
634	0.964380083661551		1.18920078682721		0.999723374843597	0.962145642063004	1.18887181674957	0.809293002414299	-3.06688915524584E-4	100.070642672698
632	0.985409941506456		1.21604931295566		0.998525381088257	0.983175499907909	1.21425609642583	0.809693690484152	-2.78991493764999E-4	100.064260803875
630	1.00620185755168		1.24268924110943		0.997326076030731	1.00396741595313	1.23936637735461	0.810065073813021	-2.69742047227281E-4	100.062129694194
628	1.02819463794382		1.27092175301585		0.995982348918915	1.02596019634527	1.26581562566391	0.810513139152604	-2.48704174691625E-4	100.05728265277
626	1.05190671717599		1.30117772166373		0.994540870189667	1.04967227557745	1.29407441638831	0.811137491232555	-2.60241812068018E-4	100.059940849056
624	1.07504807638341		1.33073960978554		0.993056654930115	1.07281363478486	1.32149981830082	0.811815196587981	-2.4956220829579E-4	100.057480335677
622	1.09340148019378		1.35436522332921		0.991701006889343	1.09116703859524	1.34312534850547	0.812408938457911	-2.56449411386169E-4	100.05906709692
620	1.10617011980998		1.37115018748615		0.990615010261536	1.10393567821143	1.35828194988852	0.8127441274634	-2.58216765981404E-4	100.059474286556
618	1.11763079387401		1.38641048828154		0.990181982517242	1.11539635227546	1.37279867871427	0.812498124867164	-2.74370990114671E-4	100.063196215578
616	1.12767620070361		1.40002329246393		0.990417122840881	1.12544175910507	1.38660703407559	0.811651557685456	-2.71810810720706E-4	100.062606341682
614	1.1376966399289		1.41360346631291		0.991193890571594	1.13546219833035	1.40115511233782	0.810375802316301	-2.84986746226082E-4	100.065642158397
612	1.14894354023702		1.42880678093064		0.992228329181671	1.14670909863848	1.41770255779642	0.808850271400258	-2.81287901086589E-4	100.064789912391
610	1.1617079472999		1.44592886432076		0.993061780929565	1.15947350570135	1.43589668592398	0.807490898939742	-2.83562433194358E-4	100.06531398346
608	1.17788344584554		1.46729595220113		0.993314802646637	1.175649004247	1.45748678200719	0.806627558315104	-2.78609299313522E-4	100.064172743837
606	1.19717538396332		1.49250378009394		0.992952227592468	1.19494094236477	1.4819849459594	0.806311120516275	-2.71418080942622E-4	100.062515855735
604	1.21893321703443		1.52079962207823		0.992071509361267	1.21669877543588	1.5087419693425	0.806432643990222	-2.82968699750696E-4	100.065177182084
602	1.24374506808463		1.55283720082642		0.990931510925293	1.24151062648608	1.53875530647546	0.806827844077285	-2.82562739605642E-4	100.065083645425
600	1.27117261971406		1.58819502820917		0.989943742752075	1.26893817811552	1.5722237232923	0.807097717275444	-2.50965850549718E-4	100.057803722549
598	1.30174853887524		1.62740156069224		0.989287972450256	1.2995140972767	1.60996878319102	0.807167263641602	-2.73903970641247E-4	100.06308861247
596	1.33456710845564		1.66949583167037		0.988997519016266	1.3323326668571	1.65112722838351	0.806923078944972	-2.57730010849487E-4	100.059362140449
594	1.36909154773326		1.71389318303669		0.989019095897675	1.36685710613471	1.69507307920549	0.806370606024479	-2.24444944880805E-4	100.051693715026
592	1.40192019562642		1.75610213766445		0.989216387271881	1.39968575402787	1.73716500515279	0.805729881661279	-2.21757023577935E-4	100.051074480249
590	1.43463816706269		1.79827169409902		0.989368975162506	1.43240372546414	1.77915421590532	0.805103746858318	-2.05649975317983E-4	100.047363869895
588	1.46526692905344		1.83791938023867		0.989350080490112	1.46303248745489	1.81834567962443	0.804595354914622	-1.98759276468766E-4	100.045776488947
586	1.49176199495944		1.8724588520057		0.98914635181427	1.48952755336089	1.85213583523622	0.80422155061371	-1.88689400760224E-4	100.043456779864
584	1.51859446508584		1.90745769172839		0.988804697990417	1.5163600234873	1.88610311965389	0.803964538145483	-2.04218113618327E-4	100.04703401594
582	1.54341907060564		1.94013778521634		0.988359570503235	1.54118462900709	1.91755374097164	0.803724347368829	-2.13875365714046E-4	100.049258751025
580	1.56916092418742		1.97406672513485		0.987916827201843	1.56692648258888	1.95021372864128	0.803463979140665	-1.95916158520565E-4	100.045121539314
578	1.59735471820788		2.0110411334156		0.987463474273682	1.59512027660933	1.98582965737445	0.803251311453527	-1.95550378210097E-4	100.045037277317
576	1.6258076135081		2.04843298084732		0.987005352973938	1.62357317190955	2.02181431017257	0.803027836800193	-2.07855016293904E-4	100.047871841112
574	1.65444848159528		2.08634104297048		0.986572206020355	1.65221403999673	2.05832607814524	0.802697909500105	-2.13116398569089E-4	100.049083906451
572	1.68356437268612		2.12468282091223		0.986202597618103	1.68132993108757	2.09536770997191	0.802403283722509	-1.9459026062308E-4	100.044816102751
570	1.71184826962088		2.16221527080733		0.985956788063049	1.70961382802233	2.13185081638156	0.801938773053596	-1.68898878381652E-4	100.038897967257
568	1.74000651535797		2.19955985261424		0.985915243625641	1.73777207375943	2.16857958083513	0.801341158570811	-1.65812806289253E-4	100.038187099016
566	1.76820113006653		2.23716433901746		0.986069560050964	1.76596668846798	2.20599964841133	0.800528998152724	-1.2719804813257E-4	100.029292722429
564	1.7996048620061		2.27872564256233		0.98643833398819	1.79737042040755	2.24782231933736	0.799605202308608	-1.42396425717926E-4	100.032793364564
562	1.83205187256229		2.32157707155276		0.986926913261414	1.82981743096375	2.29122688599452	0.798619046480641	-1.50961063240841E-4	100.034766111396
560	1.86579753376685		2.36632385998574		0.987455606460571	1.8635630921683	2.336639755109	0.797539752584313	-1.29480095818629E-4	100.02981833863
558	1.90239810500356		2.41467573591934		0.987996757030487	1.90016366340501	2.38569178922926	0.796483297626177	-1.04299330823125E-4	100.024018692462
556	1.93721315143897		2.46063776811249		0.988564491271973	1.93497870984042	2.43249911629537	0.795469440000184	-9.66798882795468E-5	100.022263844981
554	1.97433762873579		2.50972212977032		0.989157021045685	1.97210318713724	2.48250925838841	0.794399126800231	-9.46284242044184E-5	100.02179137387
552	2.01174734538318		2.55904593140617		0.989745855331421	2.00951290378463	2.5328050970601	0.793394211863019	-1.17579314499892E-4	100.027077302921
550	2.047056097214		2.60573954975925		0.990298986434937	2.04482165561545	2.58046122788412	0.792424870995687	-1.00443042652173E-4	100.023130539968
548	2.0879350596408		2.66051332320325		0.990660965442657	2.08570061804225	2.63566669017908	0.791337017618317	-8.38815936231287E-5	100.019316316065
546	2.13040136994286		2.71649747261897		0.990815043449402	2.12816692834432	2.69154655420353	0.790685535429675	-5.09073767613715E-5	100.011722543722
544	2.17138624432838		2.77040701078998		0.990794599056244	2.16915180272983	2.74490429631879	0.790246787707278	-1.89892865063832E-5	100.004372540396
542	2.21208964523244		2.82399991735167		0.990690350532532	2.20985520363389	2.79770946086625	0.789880162520401	-1.10484353078472E-5	100.002544028604
540	2.25366226563423		2.87885512859582		0.990695714950562	2.25142782403569	2.85206943270457	0.789401477474093	-1.42417494903698E-5	100.003279337777
538	2.30130451491802		2.94140136294626		0.990894556045532	2.29907007331948	2.91461859052816	0.788806494541318	-2.21595386328308E-5	100.005102552508
536	2.35346493951429		3.00965137769758		0.991336405277252	2.35123049791574	2.98357697074107	0.788057596962795	-2.75836483598736E-5	100.006351571456
534	2.4108659440175		3.08463680971466		0.991989970207214	2.40863150241895	3.05992876980082	0.787152801133909	-1.68442287195553E-5	100.003878602211
532	2.47090913225414		3.16325598758561		0.992775619029999	2.46867469065559	3.14040341405187	0.786101135799751	3.56879733701563E-5	99.9917828780758
530	2.53093871058999		3.24167359920136		0.993559658527374	2.52870426899145	3.22079610710025	0.785117773651338	6.43160777669131E-5	99.9851917723357
528	2.59296867766485		3.32263628855633		0.994197487831116	2.5907342360663	3.30335664387515	0.784273245478917	3.39021346349875E-5	99.992194049697
526	2.65603687340142		3.40490775570055		0.994674623012543	2.65380243180288	3.38677533110642	0.783577938409015	5.93902944094828E-5	99.9863258143444
524	2.71919265176986		3.48727342544355		0.995013654232025	2.71695821017131	3.46988466716686	0.78301110001725	8.83158771547201E-5	99.9796665852979
522	2.78508322392244		3.57289728515249		0.995269954204559	2.78284878232389	3.5559973101795	0.782578989685292	8.56957237752637E-5	99.9802697770547
520	2.84813233725224		3.65487025845776		0.99559760093689	2.84589789565369	3.63878005386195	0.782102202806473	8.75635390341792E-5	99.979839782478
518	2.91421214843651		3.74087350706242		0.995971322059631	2.91197770683797	3.72580272528993	0.781570555808578	1.15319359055865E-4	99.9734502613575
516	2.97639918432084		3.82154298540595		0.996365666389465	2.97416474272229	3.80765421609026	0.781101584843016	1.32363962155003E-4	99.9695267154381
514	3.03580342461833		3.89852000395353		0.996767938137054	3.03356898301978	3.88591973892419	0.780656623613029	1.45796252388545E-4	99.9664348066354
512	3.09482227016074		3.97488877242843		0.997182905673981	3.0925878285622	3.96369112861543	0.780229268177736	1.48833776791556E-4	99.9657356279998
510	3.15408491640832		4.0515568272603		0.997619688510895	3.15185047480977	4.04191285278682	0.779791794035498	1.76010285092776E-4	99.9594803455634
508	3.22589233424038		4.1442896581698		0.998028337955475	3.22365789264183	4.13611851233753	0.779392051515463	1.75203078778244E-4	99.9596661365464
506	3.30126605313992		4.24128724830205		0.998419940471649	3.29903161154137	4.23458575475833	0.77906832039812	1.94212397799245E-4	99.9552909402753
504	3.37401708387386		4.3347760005577		0.998628556728363	3.37178264227532	4.3288310939616	0.778912960355211	2.31287916148592E-4	99.946758167705
502	3.44963108973158		4.43196014980879		0.998702704906464	3.44739664813303	4.42621058243508	0.77885961002706	2.41060033805947E-4	99.9445092777634
500	3.54856462299011		4.55967029615846		0.998041987419128	3.54633018139156	4.55074239714211	0.779286075084951	2.50604907652333E-4	99.9423127330466
498	3.71264573336211		4.7722337718716		0.996963620185852	3.71041129176357	4.75774345037424	0.77986787864144	2.72191802321832E-4	99.9373451577027
496	3.93915683146543		5.06246153513498		0.996381938457489	3.93692238986689	5.04414523054442	0.780493465181606	2.68063392518341E-4	99.9382951681073
494	4.16277777783751		5.34608807396561		0.996273338794708	4.16054333623897	5.32616500774123	0.781151791240394	3.26999688136902E-4	99.9247338784343
492	4.26340912133565		5.47004300323293		0.997795403003693	4.2611746797371	5.45798375564827	0.780723225005455	3.49796370414696E-4	99.9194888368334
490	4.28809980069913		5.50060951452906		0.999251484870911	4.28586535910059	5.49649221786764	0.779745552112013	3.39163371243023E-4	99.9219352341341
488	4.38950245015873		5.63293580794562		1.00037968158722	4.38726800856018	5.63507452272516	0.778564327919212	3.77127046070272E-4	99.9132009807166
486	4.65927490438426		5.97986532316092		1.00112116336823	4.65704046278571	5.98656972187408	0.777914678880218	4.15788771981096E-4	99.9043069122457
484	4.98297770319597		6.3895161253101		1.00167071819305	4.98074326159743	6.4001911989074	0.778217885498125	4.27689379808321E-4	99.9015693557328
482	5.18946006039375		6.64588505645217		1.00221765041351	5.1872256187952	6.66062329895375	0.778789819807105	4.31673514279649E-4	99.9006528820562
480	5.23849987577772		6.70396692220566		1.00296688079834	5.23626543417918	6.72385678569243	0.77875921529461	4.8464630899561E-4	99.8884683062314
478	5.37539427689839		6.88284592351914		1.00383603572845	5.37315983529984	6.9092487591415	0.777676419334405	5.34043081427859E-4	99.8771076107887
476	5.76191364697352		7.37956479923868		1.00481963157654	5.75967920537498	7.41513157550538	0.77674673021327	5.32749221592903E-4	99.877405167345
474	6.4162210906481		8.21381882234747		1.0059871673584	6.41398664904956	8.26299632301917	0.776230122622877	5.77323139132129E-4	99.8671547521245
472	7.0962466907704		9.07628059023538		1.00742340087891	7.09401224917185	9.1436574522665	0.775839677525694	6.28635029887635E-4	99.8553561453316
470	7.64397642866591		9.75989157758794		1.00905096530914	7.64174198706736	9.84822801038629	0.775950960823421	6.58598099338091E-4	99.8484671106182
468	7.84138016322869		9.99336008627042		1.01076722145081	7.83914572163014	10.1009608000531	0.77607921432473	7.34910292410964E-4	99.8309237468137
466	7.58161710086521		9.64361649542034		1.01238787174225	7.57938265926666	9.76308037238153	0.77633107279417	7.57522887377218E-4	99.8257259430897
464	7.14599365195984		9.08610838466726		1.01368534564972	7.14375921036129	9.21045491119736	0.775614155786861	8.0704268992673E-4	99.8143441074331
462	6.7153738069257		8.54019267921642		1.01450979709625	6.71313936532716	8.66410913482391	0.77482165342826	8.68999384768219E-4	99.800105552676
460	6.3091643002105		8.02993871490914		1.01470625400543	6.30692985861195	8.14802902596639	0.774043616991647	9.15795608190903E-4	99.7893524424601
458	5.8519693970644		7.46268552832361		1.01420342922211	5.84973495546585	7.56868124670337	0.772886948834551	9.73941345838968E-4	99.7759929885812
456	5.44717705530747		6.97107605575373		1.01296448707581	5.44494261370892	7.06145247386333	0.771079694136918	0.00104608859085801	99.7594190614074
454	5.14731653592272		6.62007125697599		1.01096189022064	5.14508209432418	6.69263974404258	0.76876722654974	0.00109430025435173	99.7483452375532
452	4.88865831317322		6.31885213070063		1.00839364528656	4.88642387157467	6.37189032681731	0.76687193610493	0.00111600222114236	99.7433608749139
450	4.56868170687966		5.93224707853449		1.00559830665588	4.56644726528112	5.96545760957216	0.765481470852095	0.00118619646699713	99.7272408353898
448	4.17994599065954		5.45336514685426		1.00291681289673	4.17771154906099	5.46927158539811	0.763851544731235	0.00126893535704586	99.7082432758658
446	3.91705830390951		5.1298948037207		1.00074863433838	3.91482386231096	5.13373521189164	0.762568325152955	0.00131290162688105	99.6981497153453
444	3.84277705420632		5.04145798015581		0.999439060688019	3.84054261260777	5.0386300209631	0.762219610614251	0.00136202911226219	99.6868724770189
442	3.87409215699585		5.08048903844336		0.999334216117859	3.87185771539731	5.07710652350699	0.762611085166446	0.00142095871370889	99.6733468409122
440	3.93661923006331		5.1543156569885		1.00051915645599	3.93438478846477	5.15699154600832	0.762922481715161	0.00150254019313755	99.6546251307884
438	3.99223280218184		5.2162935244542		1.00279068946838	3.98999836058329	5.23085057261073	0.762781942477067	0.00156969154377506	99.6392175545457
