Wavelength	I1	I1 dark	R1	R1dark	XCorrect	I1c	R1c	I1c/R1c	Abs	Percent T
nm	uA	uA	uA	uA		uA	uA	uA/uA	OD	T*100
	Abs Detector Raw	Dark Offset for Abs Detector	Ref Detector Raw	Dark Offset for Ref Detector	Linear interp	Dark subtracted Abs Detector	Corrected Ref Detector	Corrected Intensity 	-Log(T)	% Transmittance
700	0.405033577577028	0.00222660547701906	0.49361125314519	6.24179837593791E-9	1.02473187446594	0.402806972100009	0.505819178296783	0.796345787948094	0.00126724269880081	99.7086318884685
698	0.410335037704583		0.500726731162882		1.02452707290649	0.408108432227564	0.513008085809453	0.795520467447657	0.00127779754702791	99.7062086555427
696	0.435395857494394		0.531527731312118		1.0254340171814	0.433169252017375	0.545046610362146	0.794737998149485	0.0013566133359584	99.6881156085587
694	0.476914161419728		0.581781617642262		1.02713179588318	0.474687555942709	0.597566391329568	0.794367894229364	0.00139046983581336	99.6803444780034
692	0.522110198766365		0.635943625388582		1.0291953086853	0.519883593289346	0.654510189414223	0.794309396091502	0.00136595539322005	99.6859712523517
690	0.558432870834267		0.679474076593099		1.03111636638641	0.556206265357248	0.700616834474419	0.793880817571986	0.00131106884756779	99.6985704554181
688	0.584152350805866		0.710753018400205		1.03234148025513	0.581925745328847	0.7337398166674	0.793095498036235	0.00137306798037261	99.68433867496
686	0.601744804912253		0.732124669832236		1.03273642063141	0.599518199435234	0.756091804532363	0.792917203759445	0.00138345104588689	99.6819554610585
684	0.610135274473829		0.742179407998189		1.03241991996765	0.60790866899681	0.766240798562973	0.793365049390344	0.0013786996639372	99.683046033595
682	0.606557318978059		0.737905101938045		1.03160095214844	0.60433071350104	0.761223599315432	0.79389382310863	0.00129639201566311	99.7019397910788
680	0.604141534826805		0.735611777784799		1.03062152862549	0.601914929349786	0.758137328462551	0.793939180610493	0.00130599797252936	99.6997345548134
678	0.612403295329399		0.74620967156006		1.02938807010651	0.61017668985238	0.768139327276787	0.794356789432436	0.0012844200159236	99.7046882672839
676	0.628042893937279		0.765789605000452		1.027991771698	0.62581628846026	0.787225406375808	0.794964546865128	0.00135668598360097	99.6880989329934
674	0.642334997339456		0.78374709018636		1.02646279335022	0.640108391862437	0.804487221065824	0.795672541590393	0.00138481958122505	99.6816413468586
672	0.655518746441674		0.800404970697473		1.02487134933472	0.653292140964655	0.820312115935893	0.796394601851412	0.00144765017992145	99.6672211678311
670	0.667676846697329		0.816034082526548		1.02321696281433	0.66545024122031	0.83497990908908	0.796965572436686	0.00159281091405645	99.6339134699969
668	0.678849361113323		0.830419544364349		1.02134227752686	0.676622755636304	0.848142582368885	0.7977700562404	0.00170199180004966	99.6088688236907
666	0.687989252715925		0.841765967189354		1.01928961277008	0.685762647238906	0.858003300377268	0.799254090208479	0.00152177922298975	99.6502105781714
664	0.696054222260021		0.852162811630232		1.01711809635162	0.693827616783002	0.866750210398342	0.800493162227363	0.00146979404292719	99.6621394522699
662	0.705925198125776		0.864951523831234		1.01487874984741	0.703698592648757	0.877820914849788	0.801642545472015	0.00149273563141967	99.6568749428225
660	0.718147893295537		0.880742425773846		1.01273846626282	0.715921287818518	0.891961727129489	0.802636779183896	0.00160697540450645	99.6306639684242
658	0.735093974301291		0.9020424510418		1.01078748703003	0.732867368824272	0.911773215973818	0.803782515196539	0.00148110680123372	99.6595434280082
656	0.756142727221992		0.92871326767952		1.00910043716431	0.753916121744973	0.937164958117093	0.804464694518354	0.00151427437340997	99.6519326039716
654	0.786101217092518		0.966276053925159		1.00764882564545	0.783874611615499	0.973666924697462	0.805074704431461	0.00150074648789957	99.6550367210795
652	0.816913543723455		1.00461171473577		1.00644826889038	0.814686938246436	1.01108971492077	0.805751385088789	0.00150371923878888	99.6543545835035
650	0.839044566865943		1.03213015757203		1.00542259216309	0.836817961388924	1.03772697220012	0.806395115291994	0.00149557125241311	99.6562242594361
648	0.846879602892328		1.04229425993901		1.00459063053131	0.844652997415309	1.04707904152085	0.806675488593945	0.00149227014029809	99.6569817583987
646	0.84960698184402		1.04669165841528		1.00393974781036	0.847380376367001	1.05081535331826	0.806402736400022	0.00155954206540958	99.6415461540146
644	0.858029495332		1.05814320161998		1.00340497493744	0.855802889854981	1.06174614643866	0.806033431555687	0.00162478269913565	99.6265789148737
642	0.873040465167602		1.07754063337089		1.00290107727051	0.870813859690583	1.08066665575051	0.805811722844188	0.00157289731020575	99.6384820653944
640	0.893276620904801		1.10341956862656		1.00236213207245	0.891050015427782	1.10602598512244	0.805632080451656	0.00160354431853597	99.631451090384
638	0.916613954608124		1.13315991697152		1.00166118144989	0.914387349131105	1.13504229495318	0.80559760036856	0.00160771684323942	99.630493876532
636	0.940850651664224		1.16395060617015		1.00077903270721	0.938624046187205	1.16485735551527	0.805784538117979	0.00161009454837497	99.6299484141825
634	0.963455874774769		1.19273617640519		0.999723374843597	0.96122926929775	1.19240622933377	0.806125668963351	0.00159785709261899	99.632755804822
632	0.984449535016153		1.219679526752		0.998525381088257	0.982222929539134	1.21788095802299	0.806501590380059	0.00161005577051241	99.6299573100741
630	1.00486690835705		1.24610957660132		0.997326076030731	1.00264030288003	1.242777568111	0.806773736996251	0.00166017161120403	99.6184610760682
628	1.02708384082912		1.27474298431443		0.995982348918915	1.0248572353521	1.26962150556867	0.807214772951611	0.00169491052072551	99.610492984262
626	1.05023502904415		1.30444182077178		0.994540870189667	1.04800842356713	1.29732069733444	0.807825255328495	0.00169242635683979	99.6110627577851
624	1.07325431840905		1.3341954949693		0.993056654930115	1.07102771293203	1.32493170905858	0.808364465586716	0.00177194860950677	99.5928249692477
622	1.09127833285401		1.3572808248425		0.991701006889343	1.08905172737699	1.34601675443791	0.809092252222207	0.00170427711693696	99.6083446695957
620	1.10470258957997		1.37478793255124		0.990615010261536	1.10247598410295	1.36188555572846	0.809521754207344	0.0016508245111289	99.6206051368015
618	1.11509156189422		1.38899707039636		0.990181982517242	1.1128649564172	1.37535986669519	0.80914456162755	0.00172214944579717	99.6042456157572
616	1.12588402541781		1.40389312042322		0.990417122840881	1.12365741994079	1.39043977892369	0.808130950346217	0.00178708037985303	99.5893549976851
614	1.13603598131925		1.41774812618968		0.991193890571594	1.13380937584223	1.4052632748617	0.806830574828631	0.0018019328460041	99.5859491928837
612	1.14631749748535		1.43173127057115		0.992228329181671	1.14409089200833	1.42060432024268	0.80535507016682	0.00178839902822613	99.5890526149769
610	1.16012265490089		1.4501890858144		0.993061780929565	1.15789604942387	1.44012735004498	0.804023372924417	0.00178766826501599	99.589220188087
608	1.17583625534892		1.4712144416123		0.993314802646637	1.1736096498719	1.46137907652094	0.803083654835045	0.00181533255999397	99.5828766172322
606	1.19479861677029		1.49625657971461		0.992952227592468	1.19257201129327	1.4857112976797	0.802694314269374	0.00188683231317052	99.5664832129475
604	1.21644446112866		1.52462294923017		0.992071509361267	1.21421785565164	1.51253498425729	0.802770096751094	0.00188624939298546	99.5666168534937
602	1.24032770594383		1.55575017125498		0.990931510925293	1.23810110046682	1.54164186163879	0.803105527473609	0.00193288442244342	99.5559258523149
600	1.26831996094016		1.59193679361264		0.989943742752075	1.26609335546314	1.57592786151461	0.803395502029077	0.00193029874198259	99.5565185851017
598	1.29880813783906		1.63101610113002		0.989287972450256	1.29658153236205	1.6135446055457	0.803561009658944	0.00186846751287631	99.5706936215936
596	1.33173772895974		1.67331044253253		0.988997519016266	1.32951112348272	1.65489987003556	0.803378589578444	0.00184453167840757	99.5761815414686
594	1.3652457164498		1.716617870338		0.989019095897675	1.36301911097278	1.69776784795022	0.802830088117407	0.00187864531981419	99.5683601831921
592	1.39846339444582		1.75955695520248		0.989216387271881	1.3962367889688	1.74058256825002	0.802166363398995	0.00188248045792837	99.5674809255847
590	1.43113542143366		1.80188978208786		0.989368975162506	1.42890881595664	1.78273384088462	0.801526724397397	0.00189921617527513	99.5636441254845
588	1.46103032628716		1.84068211075272		0.989350080490112	1.45880372081014	1.82107898825459	0.801065593650241	0.0018908751489385	99.5655563555205
586	1.48854365719435		1.87636570670764		0.98914635181427	1.48631705171733	1.85600028728522	0.800817253046538	0.00182882265801959	99.5797834121392
584	1.51473350412621		1.91104915946869		0.988804697990417	1.51250689864919	1.88965438080136	0.800414569995477	0.00188214039987423	99.5675588882079
582	1.53934478895876		1.94415100494565		0.988359570503235	1.53711818348174	1.92152024607237	0.799948991754648	0.00202136864732447	99.5356441495475
580	1.56502233683918		1.97834655910213		0.987916827201843	1.56279573136216	1.95444184960748	0.799612294259879	0.00207222261448104	99.5239896472575
578	1.59355819910496		2.01568696939087		0.987463474273682	1.59133159362794	1.99041725167935	0.799496483606794	0.00198756794412254	99.5433912101997
576	1.62137502826439		2.0522430225238		0.987005352973938	1.61914842278737	2.02557484267372	0.799352553495448	0.00195146384947922	99.5516668700519
574	1.65015242823955		2.09078128108375		0.986572206020355	1.64792582276253	2.06270669462688	0.798914274654363	0.00203045527720184	99.5335616130796
572	1.67864958107039		2.1284285390463		0.986202597618103	1.67642297559337	2.09906174789629	0.798653482811313	0.00201853776897089	99.5362929586632
570	1.70798919840358		2.16718134838664		0.985956788063049	1.70576259292656	2.1367471552513	0.798298754597357	0.0019751444637222	99.5462388011999
568	1.73608773250855		2.20485747691699		0.985915243625641	1.73386112703153	2.17380259036054	0.797616644087242	0.0020339645434757	99.5327573469094
566	1.76417288301231		2.24237708877127		0.986069560050964	1.76194627753529	2.2111397832382	0.796849792533211	0.00205137886930481	99.5287663656997
564	1.79533661204193		2.28414961715003		0.98643833398819	1.79311000656491	2.25317273676409	0.795815596961333	0.00207272768801097	99.5238739034347
562	1.828616905535		2.32824091429957		0.986926913261414	1.82639030005799	2.29780361271841	0.794841774096299	0.00207892168243425	99.5224544842395
560	1.86199565765524		2.37266747662205		0.987455606460571	1.85976905217822	2.3429037958936	0.793788057127153	0.00209459630497401	99.5188625694854
558	1.89735521749742		2.41948103938572		0.987996757030487	1.8951286120204	2.39043941444296	0.792795082180326	0.00207400353321229	99.5235815283857
556	1.93349088676784		2.46726676635824		0.988564491271973	1.93126428129082	2.43905230954675	0.791809291556238	0.00206175984794262	99.526387349405
554	1.96952420900216		2.51531396418308		0.989157021045685	1.96729760352515	2.48804046163183	0.790701611916254	0.00209718956472692	99.5182683241031
552	2.00591897157083		2.56394271436436		0.989745855331421	2.00369236609381	2.53765166867153	0.789585265318448	0.0021431611522803	99.5077345253927
550	2.04247486413435		2.61273609232444		0.990298986434937	2.04024825865733	2.58738989786963	0.78853529587373	0.00219805803417619	99.4951570708341
548	2.08315475054031		2.66719151202873		0.990660965442657	2.08092814506329	2.64228251214333	0.78754945222542	0.00217245976428499	99.5010217065853
546	2.12594041368064		2.72378086727136		0.990815043449402	2.12371380820362	2.69876305216765	0.78692118098247	0.00218846711325625	99.4973543373434
544	2.16446537784461		2.77487506027633		0.990794599056244	2.16223877236759	2.74933121659332	0.786459906801194	0.00222383988001932	99.4892507267067
542	2.20568132194074		2.8293385347432		0.990690350532532	2.20345471646372	2.80299837857625	0.786106311478831	0.0022120325215478	99.4919556222675
540	2.24806217551238		2.88512599696019		0.990695714950562	2.24583557003536	2.8582819560972	0.78572919135728	0.00216535593243001	99.5026492757533
538	2.29634969597748		2.94892999497747		0.990894556045532	2.29412309050047	2.92207867199759	0.785099700595041	0.00218361925197831	99.4984649940144
536	2.34842920298092		3.01714153316645		0.991336405277252	2.3462025975039	2.99100223551421	0.784420208599593	0.00214877201902311	99.506448943708
534	2.40439513762809		3.0908522281093		0.991989970207214	2.40216853215107	3.06609440348524	0.783462025637734	0.00219380304000568	99.4961318780326
532	2.46509447069384		3.17062524461747		0.992775619029999	2.46286786521682	3.14771943374054	0.782429284775902	0.00222087457264172	99.4899300289512
530	2.52531033020383		3.2494818567573		0.993559658527374	2.52308372472681	3.22855407778908	0.781490309263961	0.00219189225179002	99.4965696373467
528	2.58624788066646		3.3290805155438		0.994197487831116	2.58402127518944	3.30976347913559	0.780726868091588	0.00216441818072203	99.5028641273895
526	2.64863048258066		3.41077720241688		0.994674623012543	2.64640387710364	3.39261352178523	0.780048732374053	0.00216492605801113	99.502747765756
524	2.71377527085701		3.49615155416408		0.995013654232025	2.71154866537999	3.4787185274471	0.779467681557407	0.00220813921041423	99.4928475398278
522	2.77674740477005		3.57889234597589		0.995269954204559	2.77452079929303	3.5619640150702	0.778930047455392	0.00226596155865633	99.4796018566313
520	2.84103461154442		3.6628005431316		0.99559760093689	2.8388080060674	3.64667542723784	0.778464676308647	0.00228752662416659	99.4746622800104
518	2.90706636834187		3.749282170265		0.995971322059631	2.90483976286485	3.73417751367679	0.777906179399772	0.00232616181777721	99.4658133260089
516	2.96755288214765		3.82828511090485		0.996365666389465	2.96532627667063	3.81437183943647	0.777408811068805	0.00234941476382791	99.4604878812454
514	3.03007966600237		3.91010497611277		0.996767938137054	3.02785306052536	3.89746726871774	0.776877097808577	0.00240731624320874	99.4472283862541
512	3.0858422596798		3.98353278155855		0.997182905673981	3.08361565420278	3.9723107877379	0.776277541959098	0.00251314759786551	99.4229974713147
510	3.14416411942272		4.06056347348332		0.997619688510895	3.1419375139457	4.05089806136821	0.775615052846947	0.00263473352574948	99.3951667115172
508	3.21536032932453		4.15341938694943		0.998028337955475	3.21313372384751	4.14523024135969	0.775139989037993	0.00271906338805306	99.3758683613615
506	3.29216462777064		4.2521782112994		0.998419940471649	3.28993802229362	4.24545951036845	0.774930961950947	0.00266088414105116	99.3891819094488
504	3.36493172483565		4.34574983990687		0.998628556728363	3.36270511935863	4.33978988429548	0.774854361389095	0.00265521621797784	99.3904790337201
502	3.44014150330616		4.44299264112588		0.998702704906464	3.43791489782914	4.43722876233823	0.774788743598043	0.00266782067681112	99.3875944817066
500	3.53633280400353		4.56831564806202		0.998041987419128	3.53410619852651	4.55937082232014	0.775130239730774	0.00271722481057109	99.3762890681127
498	3.69968332355814		4.78116846234071		0.996963620185852	3.69745671808112	4.76665101271077	0.775692767987728	0.0027663703672314	99.3650441020279
496	3.92668443255193		5.0735260389219		0.996381938457489	3.92445782707491	5.05516970325633	0.77632563443853	0.00275314324147416	99.3680704677865
494	4.1484588213142		5.35489778133726		0.996273338794708	4.14623221583718	5.33494188529871	0.777184139018045	0.00270132901874337	99.3799264473077
492	4.24882431069681		5.47815876717286		0.997795403003693	4.2465977052198	5.46608162858141	0.776899796559001	0.00263495161536469	99.3951167982691
490	4.27203530444421		5.50681119907459		0.999251484870911	4.26980869896719	5.50268926134192	0.775949448747526	0.00260631575057831	99.4016707819878
488	4.37123804781284		5.63765736178794		1.00037968158722	4.36901144233582	5.63979787023909	0.774675182135668	0.0026806258737876	99.3846640761521
486	4.64253459683396		5.98943127489554		1.00112116336823	4.64030799135694	5.99614639958866	0.773881703701443	0.00281139231750687	99.3547437726739
484	4.96397345146903		6.39935018852201		1.00167071819305	4.96174684599201	6.41004169305347	0.774058435746062	0.00291068040738423	99.332031959397
482	5.1679454064082		6.65440938409238		1.00221765041351	5.16571880093118	6.66916653155906	0.774567373072267	0.00295284747575496	99.3223879564805
480	5.2173384763731		6.71177717232469		1.00296688079834	5.21511187089608	6.73169020887968	0.774710616364505	0.00288289931708982	99.3383862662736
478	5.35264492677895		6.88876696090534		1.00383603572845	5.35041832130193	6.91519251082662	0.773719359645471	0.00284537122910256	99.3469706276475
476	5.74115668717065		7.39088619342421		1.00481963157654	5.73893008169363	7.42650753562875	0.772762978312625	0.00291657736167472	99.3306832144792
474	6.39125789776408		8.22390320481919		1.0059871673584	6.38903129228706	8.27314108336654	0.772261856519338	0.00295989120010565	99.3207770821119
472	7.07095255963649		9.09089934017696		1.00742340087891	7.06872595415947	9.15838472404075	0.771831077985191	0.00302894652767556	99.3049857611769
470	7.61126679087594		9.76750099011763		1.00905096530914	7.60904018539892	9.85590629643791	0.772028462582782	0.0030107471922129	99.3091472752933
468	7.81305401963695		10.0069787310477		1.01076722145081	7.81082741415993	10.1147260807894	0.772223325849108	0.00303130368901342	99.3044467784184
466	7.55327753892917		9.65510592596337		1.01238787174225	7.55105093345215	9.77471213351291	0.772508778807218	0.00304921957487141	99.3003502712987
464	7.12247745050633		9.10142980137286		1.01368534564972	7.12025084502931	9.22598600778409	0.771760420948163	0.00311916789894258	99.2843580493365
462	6.69873308996996		8.56291825003907		1.01450979709625	6.69650648449294	8.68716445006657	0.770850663986409	0.00322956142200326	99.2591241179
460	6.28791863473049		8.04428179440411		1.01470625400543	6.28569202925347	8.1625830394303	0.770061633540474	0.00330763099975743	99.2412827181704
458	5.83395306412858		7.47791213395688		1.01420342922211	5.83172645865156	7.58412412335021	0.768938688740164	0.00333251348135341	99.235596947904
456	5.43118932625477		6.985963852419		1.01296448707581	5.42896272077775	7.07653328417301	0.767178292359604	0.00336636187468722	99.2278629453672
454	5.13041333023606		6.63190966776101		1.01096189022064	5.12818672475904	6.704607927182	0.764874960692064	0.00341128947375622	99.2175983916053
452	4.87451071895391		6.33329967609062		1.00839364528656	4.87228411347689	6.38645914077102	0.762908523499717	0.0034977767760228	99.1978417324688
450	4.55337336859949		5.94372962994594		1.00559830665588	4.55114676312247	5.9770044448173	0.761442760356118	0.00359884138636778	99.1747601018559
448	4.16678464568508		5.46621997327525		1.00291681289673	4.16455804020807	5.48216390792965	0.759655878618343	0.00375596934934747	99.1388851137287
446	3.90486066648829		5.14312766123994		1.00074863433838	3.90263406101127	5.14697797696734	0.758237956034689	0.00390530812480046	99.1048005579706
444	3.8255931168501		5.04654361715472		0.999439060688019	3.82336651137308	5.04371280621193	0.758046038359709	0.00385201876267776	99.1169617892333
442	3.86117073840265		5.08961988463584		0.999334216117859	3.85894413292563	5.08623129151278	0.758704021062692	0.00379260617284116	99.1305221692554
440	3.92275921847507		5.16229149642478		1.00051915645599	3.92053261299805	5.16497152713784	0.759061805548928	0.00385195556378429	99.1169762128169
438	3.97890517302836		5.22528582084254		1.00279068946838	3.97667856755134	5.23986796469285	0.758927246706769	0.00394186080527993	99.0964596883142
436	4.03402993805749		5.28578810613264		1.00572633743286	4.03180333258048	5.31605630614942	0.758419982857712	0.00390042523296849	99.1059148266563
