Wavelength	I1	I1 dark	R1	R1dark	XCorrect	I1c	R1c	I1c/R1c	Abs	Percent T
nm	uA	uA	uA	uA		uA	uA	uA/uA	OD	T*100
	Abs Detector Raw	Dark Offset for Abs Detector	Ref Detector Raw	Dark Offset for Ref Detector	Linear interp	Dark subtracted Abs Detector	Corrected Ref Detector	Corrected Intensity 	-Log(T)	% Transmittance
700	0.405553705208852	0.00223041757359959	0.493426295964438	7.52735134931672E-9	1.02473187446594	0.403323287635252	0.505629645460909	0.797665428156613	5.4816044166301E-4	99.8738610160256
698	0.411025217849436		0.500778158328955		1.02452707290649	0.408794800275837	0.513060773016293	0.796776564835633	5.92603432577569E-4	99.8636410703981
696	0.436243990284725		0.531669161975615		1.0254340171814	0.434013572711125	0.545191636857319	0.796075257524006	6.26465404449452E-4	99.8558549986927
694	0.478245891244635		0.582393363151387		1.02713179588318	0.476015473671036	0.598194733272546	0.795753367915655	6.3366751718897E-4	99.8541990551055
692	0.523453244039694		0.636540827628533		1.0291953086853	0.521222826466095	0.655124825834832	0.795608418291728	6.56285630595685E-4	99.8489987707785
690	0.559412699650214		0.679616884773117		1.03111636638641	0.557182282076614	0.700764085000535	0.795106789863794	6.40914965365153E-4	99.8525327155028
688	0.585310564255265		0.711010288155788		1.03234148025513	0.583080146681665	0.734005405580573	0.794381270558176	6.69556540815184E-4	99.8459476915961
686	0.602911890525829		0.732364412169019		1.03273642063141	0.600681472952229	0.756339393847488	0.794195671729554	6.83775914551163E-4	99.8426786571886
684	0.610886987211209		0.741964093339344		1.03241991996765	0.60865656963761	0.766018502092889	0.794571629764372	7.18709494128299E-4	99.8346478807647
682	0.607051885438673		0.737529502856012		1.03160095214844	0.604821467865074	0.760836129618603	0.794943147834294	7.227447344476E-4	99.8337202730201
680	0.605176890141177		0.735927806085069		1.03062152862549	0.602946472567578	0.758463032707545	0.794958286121332	7.4889221864257E-4	99.8277097843969
678	0.613433254196979		0.746568602410489		1.02938807010651	0.611202836623379	0.768508805088879	0.795310128623305	7.63518442254975E-4	99.8243478309751
676	0.628883382309071		0.765778120531598		1.027991771698	0.626652964735472	0.787213599114785	0.796039302979696	7.6993602571372E-4	99.8228727342911
674	0.64302256447538		0.78345877701143		1.02646279335022	0.640792146901781	0.804191276999354	0.796815590058055	7.61367867595659E-4	99.8248421505055
672	0.656400393636168		0.800263673372316		1.02487134933472	0.654169976062568	0.820167303038076	0.797605529554009	7.87801651645962E-4	99.8187663928646
670	0.668877709166239		0.81602868044574		1.02321696281433	0.666647291592639	0.834974380272963	0.798404486823541	8.09403021992006E-4	99.8138016313792
668	0.680296618281519		0.830475356789006		1.02134227752686	0.678066200707919	0.848199584644809	0.799418218286283	8.05681769111028E-4	99.8146568897435
666	0.688765746665646		0.841384793719573		1.01928961277008	0.686535329092047	0.857614772908506	0.800517144502697	8.36009142371311E-4	99.80768694011
664	0.696944511093603		0.852057825997388		1.01711809635162	0.694714093520003	0.866643426303761	0.801614680772417	8.61758326532739E-4	99.8017695489524
662	0.706694013852873		0.864696281381833		1.01487874984741	0.704463596279273	0.877561873407152	0.802750914353399	8.92685110487153E-4	99.7946627631253
660	0.719220458927519		0.880718267589597		1.01273846626282	0.71699004135392	0.891937259905096	0.803857035224886	9.47214922047344E-4	99.7821333786585
658	0.735876698062436		0.901892632739364		1.01078748703003	0.733646280488837	0.911621780208966	0.804770461189142	9.47634104648659E-4	99.7820370686297
656	0.757770759254249		0.929519669325185		1.00910043716431	0.755540341680649	0.937978697073013	0.805498402083472	9.56580157844832E-4	99.7799816747554
654	0.786713743851639		0.965860463200408		1.00764882564545	0.78448332627804	0.973248153896331	0.806046559798151	9.76798994280496E-4	99.7753364668322
652	0.817586182129721		1.00424258913628		1.00644826889038	0.815355764556122	1.01071820780632	0.806709286781117	9.87723437614735E-4	99.7728267036511
650	0.839249691470742		1.0312637179909		1.00542259216309	0.837019273897143	1.03685583297799	0.807266784132481	0.00102637630590542	99.7639471657387
648	0.847682123171573		1.04216812985012		1.00459063053131	0.845451705597974	1.04695233112387	0.807536007575828	0.00102923455705106	99.7632905848015
646	0.850597624681107		1.04668783432801		1.00393974781036	0.848367207107508	1.05081151287443	0.807344796581884	0.00105248432965162	99.7579499419158
644	0.858695839135678		1.05765997596085		1.00340497493744	0.856465421562078	1.06126127411835	0.807025981677882	0.0010903211759606	99.7492591526958
642	0.87408645233665		1.07763098465133		1.00290107727051	0.87185603476305	1.08075726785771	0.80670846330856	0.00108986524788793	99.7493638708381
640	0.894461937249975		1.10363881441895		1.00236213207245	0.892231519676375	1.10624574751376	0.806540067323764	0.00111434875659091	99.7437406228321
638	0.917277092657608		1.13273506486609		1.00166118144989	0.915046675084009	1.13461673580363	0.806480854908151	0.00113181865132622	99.7397284198795
636	0.941957128898385		1.16418645446398		1.00077903270721	0.939726711324785	1.16509338625608	0.806567715867401	0.00118818947045796	99.7267831821421
634	0.963929670032792		1.192257621344		0.999723374843597	0.961699252459193	1.19192780536775	0.80684354214094	0.00121128011623017	99.721481031862
632	0.985421140518581		1.21982669002515		0.998525381088257	0.983190722944982	1.21802790300274	0.807198850306445	0.00123474923939702	99.7160922632204
630	1.00568501372863		1.24594035005828		0.997326076030731	1.00345459615503	1.24260879278475	0.807538625174405	0.00124861961211298	99.7129076100948
628	1.02767286013265		1.27431185779497		0.995982348918915	1.02544244255905	1.26919210988475	0.80794895790218	0.00130008677796983	99.7010915799746
626	1.05178142467725		1.30517218904561		0.994540870189667	1.04955100710365	1.29804707715451	0.808561588848072	0.00129674681061601	99.7018583400541
624	1.0739513638352		1.33367762106061		0.993056654930115	1.0717209462616	1.32441742965052	0.809201783567895	0.00132233164761261	99.6959849505348
622	1.09223059302899		1.35733338972735		0.991701006889343	1.09000017545539	1.34606888181226	0.809765525511507	0.00134303612932699	99.691232174294
620	1.1056121871199		1.37495146733124		0.990615010261536	1.1033817695463	1.36204755446274	0.810090489081002	0.00134581517513288	99.6905942531925
618	1.11564946688373		1.3886331210476		0.990181982517242	1.11341904931013	1.37499948933457	0.809759609328269	0.00139215852950576	99.6799568856007
616	1.12652425180873		1.40346490199419		0.990417122840881	1.12429383423513	1.39001566278603	0.80883537094948	0.0014086853616509	99.6761636931026
614	1.13648276429523		1.41712819445763		0.991193890571594	1.13425234672163	1.40464880104209	0.807498889316775	0.001442346630916	99.668438298698
612	1.14771120851118		1.43246613337996		0.992228329181671	1.14548079093758	1.42133347066408	0.80591980318481	0.00148396873199189	99.658886689816
610	1.16068613521714		1.45005467372435		0.993061780929565	1.15845571764355	1.43999386925881	0.804486562321143	0.00153754782717913	99.6465924889089
608	1.17667327504584		1.47131832485633		0.993314802646637	1.17444285747224	1.46148226400802	0.803597064702936	0.00153777762645028	99.6465397626846
606	1.19571162664495		1.49642769459148		0.992952227592468	1.19348120907135	1.48588120530137	0.803214419035121	0.00160552288008944	99.6309971898215
604	1.21732007898874		1.52473863338686		0.992071509361267	1.21508966141514	1.51264974993787	0.803285533524897	0.00160749023906995	99.6305458612846
602	1.24158978620472		1.55632780750192		0.990931510925293	1.23935936863112	1.54221425832384	0.803623336992175	0.00165295937802623	99.620115431732
600	1.26868059044593		1.59148951296539		0.989943742752075	1.26645017287233	1.57548507756398	0.803847774191879	0.00168588109505362	99.6125640096378
598	1.30040944633252		1.63227306194981		0.989287972450256	1.29817902875892	1.61478810049478	0.803931505540041	0.0016682745812686	99.6166024342679
596	1.33252940939528		1.67374088733625		0.988997519016266	1.33029899182168	1.6553255776071	0.803647940814594	0.00169894882157621	99.6095667572775
594	1.36596434578511		1.71693435452393		0.989019095897675	1.36373392821152	1.69808085558222	0.803103058213285	0.00173100603884286	99.602214401199
592	1.39988449147665		1.76078948693584		0.989216387271881	1.39765407390305	1.7418018075668	0.80241854603165	0.00174596973038492	99.5987826487837
590	1.43195180514434		1.80239523064729		0.989368975162506	1.42972138757074	1.78323391473597	0.801757624592074	0.00177412460162478	99.5923259699091
588	1.4619182507127		1.84143932557466		0.989350080490112	1.4596878331391	1.82182813752777	0.801221478069774	0.00180637126118144	99.5849314467502
586	1.48933565736021		1.87740934543169		0.98914635181427	1.48710523978661	1.85703259745012	0.800796519042555	0.00184006714614166	99.5772051864353
584	1.51566277658343		1.91226460605338		0.988804697990417	1.51343235900983	1.89085621882329	0.800395262180042	0.00189261669447555	99.5651570927855
582	1.54047975223923		1.94525915501258		0.988359570503235	1.53824933466563	1.92261549552599	0.800081627473199	0.00194936632423187	99.5521476789215
580	1.56580656394317		1.97885822010144		0.987916827201843	1.56357614636957	1.9549473268485	0.799804744043999	0.00196770968547143	99.5479429687108
578	1.59361023157546		2.01572170355915		0.987463474273682	1.59137981400186	1.9904515491324	0.799506933336562	0.00198189158354991	99.5446922810108
576	1.62071166156783		2.05187062919596		0.987005352973938	1.61848124399423	2.02520728719688	0.799168190943254	0.00205164101605124	99.5287062886426
574	1.64949651111852		2.09019211717385		0.986572206020355	1.64726609354492	2.06212544062028	0.79881953885862	0.00208195726461707	99.5217588559357
572	1.67792793659837		2.12800143756063		0.986202597618103	1.67569751902477	2.09864053803385	0.798468098112062	0.00211935858716961	99.5131884382024
570	1.70798894017792		2.16805392012294		0.985956788063049	1.70575852260432	2.13760747201028	0.797975561434657	0.00215100522607055	99.5059372680111
568	1.73654775354036		2.20642865141492		0.985915243625641	1.73431733596676	2.175351633981	0.797258387506243	0.00222907557821877	99.4880513272836
566	1.76376106144319		2.24308700838983		0.986069560050964	1.76153064386959	2.2118398120965	0.79640968312254	0.00229131102884316	99.4737954701553
564	1.79437618724108		2.28409368453307		0.98643833398819	1.79214576966748	2.25311756141848	0.795407128485216	0.00229569535465946	99.4727912590812
562	1.82707022444518		2.32772931762193		0.986926913261414	1.82483980687158	2.29729870291976	0.794341547554218	0.00235232706133854	99.4598209200655
560	1.86127472823354		2.37337856811561		0.987455606460571	1.85904431065994	2.34360596590619	0.793240987480209	0.00239401028117401	99.4502753080353
558	1.89636297694775		2.42024805598421		0.987996757030487	1.89413255937415	2.39119722308475	0.792127282972768	0.00243997922312736	99.4397493120012
556	1.93277645336475		2.46875754722668		0.988564491271973	1.93054603579115	2.44052604130671	0.791036851529554	0.00248563739193037	99.4292955798087
554	1.9690124489381		2.51718729462932		0.989157021045685	1.9667820313645	2.48989347832385	0.789906093769323	0.00253434948669262	99.4181438432499
552	2.00489985677247		2.56519846105406		0.989745855331421	2.00266943919887	2.53889453748063	0.788795835996456	0.00257758706715695	99.4082464436747
550	2.04114024875506		2.61355848001647		0.990298986434937	2.03890983118146	2.58820430629442	0.787770048223361	0.0026197312324534	99.3986002831165
548	2.08153877060386		2.66828471176895		0.990660965442657	2.07930835303026	2.64336550117986	0.786614016148037	0.00268861298796502	99.3828363086045
546	2.12373463506866		2.72442201059812		0.990815043449402	2.12150421749506	2.69939830534707	0.785917444377403	0.00274277360219119	99.3704431052285
544	2.16371340782057		2.77754178389849		0.990794599056244	2.16148299024697	2.75197339068161	0.785430192590496	0.00279283546537918	99.3589891655018
542	2.20322284463686		2.83026886451713		0.990690350532532	2.20099242706326	2.80392004603251	0.784969753391372	0.00284039292101052	99.3481094463133
540	2.24458711730812		2.88569867574396		0.990695714950562	2.24235669973452	2.85884930524073	0.784356382697022	0.00292480928661982	99.3288004482604
538	2.29281603275543		2.949717759773		0.990894556045532	2.29058561518183	2.92285926257108	0.783679749659558	0.00296980627675103	99.3185095840961
536	2.34342126843062		3.01694931374114		0.991336405277252	2.34119085085702	2.99081168012568	0.782794472288086	0.00304979543461782	99.3002186024911
534	2.40045535586799		3.092430354981		0.991989970207214	2.39822493829439	3.06765988823843	0.781776672012863	0.00312904705524536	99.2820995943558
532	2.45972576578741		3.17064542377904		0.992775619029999	2.45749534821381	3.1477394658439	0.780717519629585	0.003172046212348	99.2722702379046
530	2.51930300788709		3.24941923093123		0.993559658527374	2.51707259031349	3.22849185401744	0.779643469498403	0.00321944377136416	99.2614365599885
528	2.58032226282656		3.33002525712657		0.994197487831116	2.57809184525296	3.31070273756573	0.77871438471355	0.00328534647428033	99.2463751191234
526	2.6399125157435		3.40894017192542		0.994674623012543	2.6376820981699	3.39078627289497	0.77789689053976	0.00336462598988998	99.2282595621565
524	2.70428292000852		3.49372926037869		0.995013654232025	2.70205250243492	3.47630831077693	0.777276426851515	0.00343075563218385	99.2131513118346
522	2.7697651594554		3.57995052656061		0.995269954204559	2.7675347418818	3.56301718913282	0.776739093575739	0.00348925484648278	99.1997882580339
520	2.83278466979553		3.66306363470206		0.99559760093689	2.83055425222193	3.64693735929432	0.776145563621538	0.00358325794532592	99.1783187741837
518	2.89704780806039		3.74778501544827		0.995971322059631	2.89481739048679	3.73268638913426	0.775531906166431	0.00365371336458599	99.1622304204268
516	2.96008129826825		3.83089964852962		0.996365666389465	2.95785088069465	3.81697687367839	0.774919780387403	0.00374212661948261	99.1420451232025
514	3.01924334167668		3.90853221094477		0.996767938137054	3.01701292410308	3.89589958554266	0.774407260212494	0.00379021904882158	99.1310670472373
512	3.0756743567006		3.9826528724575		0.997182905673981	3.073443939127	3.97143335614185	0.773887829283071	0.00385215293229482	99.1169311683451
510	3.13503737667072		4.06083471935063		0.997619688510895	3.13280695909713	4.05116866030337	0.773309437791348	0.00392765211750109	99.0997018517486
508	3.20571897194118		4.15357852156418		0.998028337955475	3.20348855436758	4.14538906093174	0.772783569233317	0.00404132623919705	99.0737664602529
506	3.2808985896546		4.25172484591659		0.998419940471649	3.278668172081	4.24500686004642	0.772358745268352	0.0041048290407866	99.0592808933204
504	3.35557678384238		4.34897981848471		0.998628556728363	3.35334636626878	4.34301543185714	0.772123981340503	0.00418825671007965	99.0402535016767
502	3.42766052566672		4.44321684672895		0.998702704906464	3.42543010809313	4.43745267579659	0.771936144080277	0.00426974697170581	99.0216715040782
500	3.52273769250436		4.5679859868554		0.998041987419128	3.52050727493076	4.55904180531128	0.772203332469857	0.00436023341760834	99.001042216516
498	3.68604665181275		4.78225200162424		0.996963620185852	3.68381623423915	4.76773126067584	0.772656014533201	0.00446992317669446	98.9760406803268
496	3.91102195702858		5.0744187222116		0.996381938457489	3.90879153945498	5.05605915548206	0.773090547252963	0.00456670704885094	98.9539860202758
494	4.13039857874815		5.35564738883126		0.996273338794708	4.12816816117455	5.33568869797878	0.773689844900124	0.00465836129507928	98.9331048062189
492	4.23013911508338		5.48070553699441		0.997795403003693	4.22790869750978	5.46862278251915	0.773121289518193	0.00475232669225239	98.9117016264443
490	4.2502134257754		5.50701961816931		0.999251484870911	4.2479830082018	5.50289752314721	0.771953864365677	0.00484839907499731	98.8898233105485
488	4.3519825847738		5.64225940691678		1.00037968158722	4.3497521672002	5.64440166139369	0.770631225086518	0.00495366665387986	98.8658565525134
486	4.61979757018203		5.9917469430804		1.00112116336823	4.61756715260843	5.99846466272886	0.769791507033363	0.00511285610862183	98.8296241839911
484	4.93871168399184		6.40025843671549		1.00167071819305	4.93648126641824	6.41095145738603	0.770007587677324	0.00518942363827954	98.8122017356765
482	5.14135142739788		6.6558624414784		1.00221765041351	5.13912100982428	6.67062281002999	0.770410973034941	0.00528958696492745	98.7894148525759
480	5.19303194101349		6.71930107741782		1.00296688079834	5.19080152343989	6.739236435213	0.77023585288054	0.00539867648083905	98.7646032639103
478	5.32441221956003		6.89491836187234		1.00383603572845	5.32218180198643	6.92136750749703	0.76894945922487	0.00553103909006935	98.7345067528914
476	5.70956970562619		7.39725513119924		1.00481963157654	5.70733928805259	7.43290716804564	0.767847513633517	0.0056879026787601	98.6988511021818
474	6.35439530588914		8.23020380575555		1.0059871673584	6.35216488831554	8.27947940576192	0.767217910330798	0.00580574326299379	98.6720739890132
472	7.02912118209932		9.09816496514793		1.00742340087891	7.02689076452572	9.16570428336341	0.766650390115701	0.00595384709389585	98.6384304101592
470	7.56666592529394		9.77972118237649		1.00905096530914	7.56443550772034	9.86823709193579	0.766543754193128	0.00610710971911178	98.6036270261979
468	7.75863650370355		10.0111503731585		1.01076722145081	7.75640608612995	10.1189426385952	0.766523377308795	0.00624881507757974	98.5714590305555
466	7.50122312958188		9.6630266591048		1.01238787174225	7.49899271200828	9.78273098637912	0.766554116887138	0.00640982260774359	98.534922057882
464	7.07207968177742		9.10906932958753		1.01368534564972	7.06984926420382	9.23373008427983	0.7656547462049	0.00656869128948637	98.4988837222154
462	6.64431703324629		8.56169439187089		1.01450979709625	6.64208661567269	8.68592283266049	0.764695558967823	0.00671124425513395	98.466557721396
460	6.23846665551102		8.04733451562088		1.01470625400543	6.23623623793742	8.16568065343623	0.763712971718178	0.00690295006970779	98.423102308517
458	5.78879867165576		7.48419166180138		1.01420342922211	5.78656825408216	7.59049284072019	0.762344208144083	0.00707312110498844	98.3845444152428
456	5.38338234026791		6.98751243451918		1.01296448707581	5.38115192269431	7.0781019415436	0.760253520948977	0.0073042275002753	98.3322037807313
454	5.08501746954005		6.63555813529451		1.01096189022064	5.08278705196645	6.70829638751643	0.757686714830472	0.00751206090008724	98.2851577605375
452	4.82353021660353		6.32801717911653		1.00839364528656	4.82129979902993	6.38113230309476	0.75555552996318	0.0077038552427098	98.2417623774351
450	4.51010207783189		5.94608788376765		1.00559830665588	4.50787166025829	5.97937589957432	0.753903373189701	0.0079204167530362	98.1927862064121
448	4.12491225252307		5.46633273056146		1.00291681289673	4.12268183494947	5.48227699281846	0.752001739487078	0.00815402715999194	98.1399817400604
446	3.86582014117855		5.14486201557496		1.00074863433838	3.86358972360495	5.14871362841305	0.750399032155104	0.00841856353386994	98.080221161104
444	3.7844919695534		5.04802460235012		0.999439060688019	3.7822615519798	5.04519295937969	0.749676292350339	0.008673824173366	98.0225905328497
442	3.81515197168449		5.0891475720626		0.999334216117859	3.81292155411089	5.08575929211295	0.74972513151065	0.00896292290379991	97.9573611142405
440	3.87445711718069		5.16266730020934		1.00051915645599	3.87222669960709	5.16534752473713	0.749654632348121	0.00926786574420528	97.8886038252748
438	3.92979819643672		5.22804088956651		1.00279068946838	3.92756777886312	5.24263072066895	0.749159723071622	0.00956758533972835	97.8210712813685
436	3.97877862930892		5.28555078078803		1.00572633743286	3.97654821173532	5.31581762050689	0.748059564044285	0.00987401268517264	97.7520755190169
