Wavelength	I1	I1 dark	R1	R1dark	XCorrect	I1c	R1c	I1c/R1c	Abs	Percent T
nm	uA	uA	uA	uA		uA	uA	uA/uA	OD	T*100
	Abs Detector Raw	Dark Offset for Abs Detector	Ref Detector Raw	Dark Offset for Ref Detector	Linear interp	Dark subtracted Abs Detector	Corrected Ref Detector	Corrected Intensity 	-Log(T)	% Transmittance
700	0.404856359184557	0.00222913306489959	0.492553830570163	6.25991818787723E-9	1.02473187446594	0.402627226119658	0.504735603660806	0.797699277006487	4.25395431996269E-4	99.9020970382183
698	0.410020828369337		0.499489685292862		1.02452707290649	0.407791695304438	0.511740698806626	0.796871728700499	4.35912324468545E-4	99.8996778343491
696	0.435148522853705		0.530326643482632		1.0254340171814	0.432919389788806	0.543814974025589	0.796078465041375	4.36899863245956E-4	99.8994506735224
694	0.476504164567024		0.580259084877162		1.02713179588318	0.474275031502125	0.596002549497649	0.795760071667271	4.68397140813424E-4	99.8922057124231
692	0.521602344013286		0.634279890607069		1.0291953086853	0.519373210948386	0.652797881363544	0.795611054777837	4.73702957014735E-4	99.8909853274816
690	0.558344245440241		0.678296510304234		1.03111636638641	0.556115112375341	0.699402626582782	0.795128715904984	5.08660359046138E-4	99.8829451866421
688	0.583842865474321		0.709210622917336		1.03234148025513	0.581613732409421	0.73214753781277	0.794394165617143	4.92597323325003E-4	99.8866395761743
686	0.60163330166375		0.730860506394529		1.03273642063141	0.599404168598851	0.7547862568899	0.794137629199422	5.58668824014693E-4	99.8714444529213
684	0.609766902423768		0.740581141872515		1.03241991996765	0.607537769358869	0.764590716758709	0.794592134121603	5.19381138512767E-4	99.8804795559338
682	0.606562416822089		0.736944898272261		1.03160095214844	0.60433328375719	0.76023305228086	0.794931609384862	5.8793714701709E-4	99.8647140630084
680	0.603606378109442		0.733952648810058		1.03062152862549	0.601377245044542	0.756427394403742	0.795023090773413	5.65850174995267E-4	99.8697930251559
678	0.61194408653466		0.744711323740777		1.02938807010651	0.60971495346976	0.766596945888095	0.795352703581948	5.94419000036001E-4	99.8632235914625
676	0.627756977565976		0.764368683563071		1.027991771698	0.625527844501076	0.785764710811324	0.796075257509594	5.71016250973706E-4	99.8686050481227
674	0.642050969301979		0.782257495277949		1.02646279335022	0.639821836237079	0.802958207296577	0.796830806912417	6.21774710221555E-4	99.8569335199074
672	0.655251108691091		0.798896655367712		1.02487134933472	0.653021975626191	0.818766286750089	0.797568226970137	6.43845198132796E-4	99.8518590017246
670	0.667754457593203		0.81466149952422		1.02321696281433	0.665525324528303	0.833575458859687	0.79839841427041	6.76262879398942E-4	99.8444058908378
668	0.679157998995203		0.829149076464528		1.02134227752686	0.676928865930303	0.846844999772051	0.799353914957891	7.02267100713148E-4	99.8384276930803
666	0.687968728470964		0.840459036417833		1.01928961277008	0.685739595406065	0.856671159398779	0.800470037869986	7.16966500268995E-4	99.8350485571137
664	0.695943677263467		0.850844873872577		1.01711809635162	0.693714544198567	0.865409712036737	0.801602448585785	7.23214092056487E-4	99.8336123791996
662	0.705539808535219		0.86328982292892		1.01487874984741	0.703310675470319	0.876134489897038	0.802742824966258	7.70638113302234E-4	99.8227113591268
660	0.718170376299503		0.879455321568502		1.01273846626282	0.715941243234604	0.890658227172298	0.803833862858491	7.63058605590464E-4	99.8244535263531
658	0.735304493474879		0.901180079219074		1.01078748703003	0.733075360409979	0.910901541307924	0.804780019756459	7.80701074886901E-4	99.8203984113139
656	0.756625974008673		0.928102270555308		1.00910043716431	0.754396840943773	0.936548400633661	0.805507585548547	7.99987075939457E-4	99.8159657195707
654	0.785762659307663		0.964640590627908		1.00764882564545	0.783533526242764	0.972018952008343	0.806088733788432	8.17888331309145E-4	99.8118514737273
652	0.816717696462368		1.00317974077064		1.00644826889038	0.814488563397469	1.00964850718423	0.806705063793902	8.17691053050351E-4	99.8118968132689
650	0.838858783832581		1.03071722563657		1.00542259216309	0.836629650767681	1.0363063784928	0.80731882783977	8.22986495065629E-4	99.8106797936849
648	0.846563603701133		1.04079979301665		1.00459063053131	0.844334470636233	1.0455777140348	0.807529138487483	8.72357214963899E-4	99.7993339322055
646	0.849388861915505		1.04522211543362		1.00393974781036	0.847159728850605	1.04934002068967	0.807326235678897	8.95504640964466E-4	99.794014877436
644	0.856902101819378		1.05544093206196		1.00340497493744	0.854672968754478	1.05903467570235	0.80703020246968	9.19369818629339E-4	99.7885311870854
642	0.872352968456858		1.07545121311933		1.00290107727051	0.870123835391958	1.07857117391117	0.806737521304851	9.36023605267549E-4	99.7847046935112
640	0.892713133546025		1.1015418469356		1.00236213207245	0.890484000481126	1.10414382798668	0.806492757474226	9.5672634289317E-4	99.7799480884687
638	0.915856240236903		1.13108493669886		1.00166118144989	0.913627107172004	1.13296386774363	0.806404452236899	9.98829227142794E-4	99.770275343013
636	0.940381708231603		1.16225422556169		1.00077903270721	0.938152575166703	1.16315965335271	0.806555293129847	0.0010233080429598	99.7646519941822
634	0.962545327433907		1.19056601321524		0.999723374843597	0.960316194369007	1.19023666644744	0.806827937199509	0.00101816867936101	99.7658325983023
632	0.983438966548136		1.21734437708435		0.998525381088257	0.981209833483237	1.21554925179311	0.80721520089442	0.00105243194148946	99.7579619755386
630	1.00439742499804		1.24435134719128		0.997326076030731	1.00216829193314	1.24102404005465	0.807533343100276	0.00108970237915663	99.749401278763
628	1.02640729335586		1.27260182550012		0.995982348918915	1.02417816029096	1.26748894916534	0.808037151696981	0.00108002627516186	99.75162372545
626	1.04933922357147		1.30207697233622		0.994540870189667	1.04711009050657	1.29496875889545	0.808598727431627	0.00110117988091941	99.7467651439547
624	1.0731150972182		1.33251182281933		0.993056654930115	1.0708859641533	1.32325972720734	0.80927873956638	0.00110948326394575	99.7448580792473
622	1.09068456877135		1.35530004716862		0.991701006889343	1.08845543570645	1.34405241520633	0.809831092442443	0.001123796693656	99.7415707533705
620	1.10406016357592		1.37306064280078		0.990615010261536	1.10183103051102	1.36017447655664	0.810065950730362	0.00117524540966823	99.7297555634062
618	1.11447227666533		1.38707411836828		0.990181982517242	1.11224314360043	1.3734557942258	0.809813572651156	0.00116294500747865	99.7325802216208
616	1.1246468592381		1.4011131474776		0.990417122840881	1.1224177261732	1.38768644609937	0.808841024085951	0.00123464527685571	99.7161161335204
614	1.13523546768813		1.41547547088776		0.991193890571594	1.13300633462323	1.4030106327931	0.807553633693887	0.00123010220079423	99.7171592512401
612	1.14565462939905		1.42979781251472		0.992228329181671	1.14342549633415	1.41868588836783	0.805975096890296	0.00126522451838944	99.7090952387612
610	1.15923333934329		1.44800839077354		0.993061780929565	1.15700420627839	1.43796178512604	0.804614015647836	0.00126648043778219	99.7088068943071
608	1.17511129244241		1.46916766615474		0.993314802646637	1.17288215937751	1.45934598414324	0.803703968847447	0.00129833327029187	99.7014941339784
606	1.19420680956863		1.49433005666041		0.992952227592468	1.19197767650373	1.48379835230354	0.803328615814429	0.00133799399726829	99.6923895900489
604	1.21601774651198		1.52291932985221		0.992071509361267	1.21378861344708	1.51084487199165	0.803384011124198	0.00136194658878027	99.6868914192549
602	1.24074927905288		1.55505401788111		0.990931510925293	1.23852014598798	1.54095202130623	0.803736994314797	0.00138435635881487	99.6817476682527
600	1.26741377808245		1.58968155398824		0.989943742752075	1.26518464501755	1.57369530114209	0.803957820868729	0.00144188877486432	99.6685433744556
598	1.29768464353391		1.62877068675723		0.989287972450256	1.29545551046901	1.61132324409561	0.803969976363193	0.00144980523353482	99.6667266009389
596	1.3309769576662		1.67172609852594		0.988997519016266	1.3287478246013	1.65333295772585	0.803678302299729	0.00149216355682287	99.6570062159712
594	1.36429977106595		1.71473626962812		0.989019095897675	1.36207063800106	1.69590690889938	0.803151771393528	0.0015126219038336	99.6523117754946
592	1.39788647277971		1.75820752940784		0.989216387271881	1.39565733971481	1.73924769412263	0.802448865926971	0.00155034574503168	99.643656117004
590	1.42971487935325		1.79943179024823		0.989368975162506	1.42748574628835	1.78030197999935	0.801822253935181	0.00156809224956337	99.6395844777371
588	1.46015797991144		1.83910581024069		0.989350080490112	1.45792884684654	1.81951947519821	0.801271361323419	0.00159914103698258	99.6324612518597
586	1.48754674041273		1.87492553759906		0.98914635181427	1.48531760734783	1.85457574924755	0.800893470083636	0.00161226450242664	99.6294506140051
584	1.51301501658425		1.90869283154091		0.988804697990417	1.51078588351935	1.88732443265845	0.800490820431592	0.00167631883488133	99.6147572950225
582	1.53845980454973		1.94244785459939		0.988359570503235	1.53623067148483	1.91983692110973	0.800188106913185	0.00170115709246801	99.6090602706497
580	1.56440492116406		1.97682769971442		0.987916827201843	1.56217578809916	1.95294134284231	0.799909220942383	0.00172979196654934	99.6024928400531
578	1.59178229250524		2.01309110382883		0.987463474273682	1.58955315944034	1.98785392923482	0.799632777873273	0.00176530486593751	99.5943485305156
576	1.6194395109757		2.04988427290883		0.987005352973938	1.6172103779108	2.02324674415953	0.799314459582934	0.00180507583551675	99.5852284918977
574	1.64826711565318		2.08817988573657		0.986572206020355	1.64603798258828	2.0601402302626	0.798993174546407	0.00179594618865142	99.5873219735406
572	1.67726535866381		2.12672559621957		0.986202597618103	1.67503622559891	2.0973823012391	0.798631811000468	0.00185150207914161	99.5745833624729
570	1.70691709288277		2.16623203949621		0.985956788063049	1.70468795981787	2.13581117768894	0.798145443579162	0.00189027416761173	99.5656941354925
568	1.73441826276988		2.20307742884718		0.985915243625641	1.73218912970498	2.17204761381627	0.797491325091874	0.00192566917770431	99.557579859831
566	1.7625386075531		2.24084468756045		0.986069560050964	1.7603094744882	2.20962872903256	0.796653958811856	0.00198015164228106	99.5450910939646
564	1.7936159051678		2.28242486129755		0.98643833398819	1.7913867721029	2.25147137145655	0.795651588029738	0.00201028067401944	99.5381854267222
562	1.82526922112831		2.32476312547633		0.986926913261414	1.82304008806341	2.29437128931223	0.794570650598532	0.00205618323303879	99.5276653391598
560	1.85935130999077		2.37022493606691		0.987455606460571	1.85712217692587	2.34049189551053	0.793475158144387	0.00208952459716746	99.5200247614091
558	1.89503634731438		2.41788199717456		0.987996757030487	1.89280721424948	2.38885956590608	0.792347629498072	0.00215661071669628	99.5046529413108
556	1.92986667319684		2.4642767348197		0.988564491271973	1.92763754013194	2.43609647052206	0.791281282764158	0.00219592697779146	99.495645288665
554	1.9661808402505		2.5127028651851		0.989157021045685	1.9639517071856	2.4854576747074	0.790177087773906	0.00221969710183305	99.4901997690747
552	2.00243412238854		2.5610711755387		0.989745855331421	2.00020498932364	2.53480957500247	0.789094774238295	0.00224228119182404	99.4850262352212
550	2.0390858861581		2.60995295118472		0.990298986434937	2.0368567530932	2.58463375600191	0.788063975549075	0.00229617954540674	99.4726803578833
548	2.08007929044142		2.66536582844227		0.990660965442657	2.07785015737652	2.64047387866103	0.786923201236205	0.00234525027381015	99.4614416216499
546	2.12205236719678		2.72103276970121		0.990815043449402	2.11982323413188	2.69604019573633	0.786272859538329	0.00237960163096475	99.4535748387929
544	2.16175998610362		2.77393329908718		0.990794599056244	2.15953085303872	2.74839812467556	0.785741641158211	0.00246398023291725	99.4342539890143
542	2.2023847568247		2.82825275124393		0.990690350532532	2.2001556237598	2.80192270332281	0.785230663626315	0.00255290775711983	99.4138955982102
540	2.24272301537746		2.88221802296339		0.990695714950562	2.24049388231256	2.85540103870144	0.784651210791561	0.00260704391159345	99.401504120048
538	2.29222591857509		2.94764431476927		0.990894556045532	2.28999678551019	2.92080469846051	0.784029410359821	0.00261596395874692	99.3994625168612
536	2.34299256876286		3.01476434530035		0.991336405277252	2.34076343569796	2.98864564262239	0.7832187939297	0.00264727624468352	99.3922961532002
534	2.40085191911761		3.09095059236672		0.991989970207214	2.39862278605271	3.06619197982406	0.782280692740689	0.00267958935177503	99.3849012758387
532	2.45853488538351		3.16726424515674		0.992775619029999	2.45630575231861	3.14438271540237	0.781172641703793	0.00276708675773301	99.3648801945457
530	2.51870085569598		3.24672802563849		0.993559658527374	2.51647172263108	3.22581798226504	0.780103445534184	0.00284692911032073	99.3466142553966
528	2.58075471850392		3.32854253289872		0.994197487831116	2.57852558543902	3.30922861812333	0.779192338455391	0.00285662835786773	99.3443955381787
526	2.64184492070873		3.40898771361694		0.994674623012543	2.63961578764383	3.39083356266974	0.778456311363616	0.00290734620245673	99.3327945631959
524	2.70431899648073		3.4911792697789		0.995013654232025	2.70208986341583	3.47377103657309	0.777854911842857	0.00295763611391865	99.3212928093507
522	2.76996315374548		3.57740755030875		0.995269954204559	2.76773402068058	3.56048624253653	0.777347202641854	0.00299883965842439	99.3118701817253
520	2.82986926828976		3.65636162338569		0.99559760093689	2.82764013522486	3.64026485416815	0.776767693698763	0.00305991795769788	99.2979041428734
518	2.89819152425173		3.74615768109479		0.995971322059631	2.89596239118683	3.73106561204913	0.776175680704888	0.00312347794166035	99.2833727324171
516	2.95702766997517		3.82370918882277		0.996365666389465	2.95479853691027	3.80981254776376	0.775575832108758	0.00321561547504993	99.262311551227
514	3.01791033950352		3.90354360481988		0.996767938137054	3.01568120643863	3.89092710416471	0.775054665817499	0.00327351010319672	99.2490800416626
512	3.07408637405971		3.97734225987355		0.997182905673981	3.07185724099481	3.96613770531834	0.774521075472402	0.00333783160214832	99.2343817732184
510	3.13279024814906		4.05423406395332		0.997619688510895	3.13056111508416	4.04458371778636	0.774013182448735	0.00340631361590029	99.2187351674916
508	3.20315325305119		4.14605863164531		0.998028337955475	3.20092411998629	4.13788399895934	0.773565455385243	0.00343410798797286	99.2123854800952
506	3.27908966162697		4.24494791535473		0.998419940471649	3.27686052856207	4.2382406387037	0.773165284348821	0.00349741152159415	99.1979251608054
504	3.35307080804109		4.34110226818566		0.998628556728363	3.35084167497619	4.33514868643714	0.772947346756426	0.00357030730789368	99.1812763102612
502	3.42782046594553		4.43848553101769		0.998702704906464	3.42559133288063	4.43272749926377	0.77279538014678	0.00363572572933985	99.1663376127684
500	3.52351872089667		4.56371282731719		0.998041987419128	3.52128958783178	4.55477701393816	0.773098129075521	0.00371289862643312	99.1487176015254
498	3.68550072520736		4.77565631167163		0.996963620185852	3.68327159214246	4.76115559900665	0.773608741732979	0.00377185609695143	99.1352586213269
496	3.90882782204636		5.06531945091383		0.996381938457489	3.90659868898146	5.04699280717067	0.774044829909612	0.00387122040423213	99.1125795868833
494	4.13231966122244		5.35112549694728		0.996273338794708	4.13009052815754	5.33118365891657	0.774704229378748	0.00392650572270542	99.0999634427592
492	4.22977125713713		5.47299117216646		0.997795403003693	4.22754212407223	5.46092542602137	0.774143903142853	0.0040251975436707	99.0774458997866
490	4.25144226253431		5.50107660437095		0.999251484870911	4.24921312946941	5.49695895905106	0.773011616263359	0.00410604923668325	99.0590025762722
488	4.35188710325375		5.63417892693104		1.00037968158722	4.34965797018885	5.6363181146664	0.771719743580565	0.00421201715233113	99.0348351140394
486	4.62088377435437		5.98393284117352		1.00112116336823	4.61865464128947	5.99064180120603	0.770978268198184	0.00430561863754042	99.0134928930979
484	4.93903102368408		6.39068408466541		1.00167071819305	4.93680189061918	6.40136111056134	0.77121127918782	0.00435552457055608	99.0021156432173
482	5.14581902991909		6.65091012779627		1.00221765041351	5.14358989685419	6.66565951511761	0.771655060566566	0.00442873071943325	98.9854289176974
480	5.19501926259509		6.71078074429382		1.00296688079834	5.19279012953019	6.73069082454744	0.771509235068652	0.00454671615202808	98.9585410504141
478	5.32456504595666		6.88319920627013		1.00383603572845	5.32233591289176	6.90960339806752	0.770280956267376	0.00468381269228511	98.927307099659
476	5.71327871064442		7.38875034419897		1.00481963157654	5.71104957757952	7.42436139237893	0.769231086116293	0.00475535634867632	98.9110116166941
474	6.34880669225462		8.20754498673552		1.0059871673584	6.34657755918972	8.25668492587529	0.768659288342278	0.00483393574756131	98.8931166973419
472	7.02873562583583		9.08017540692654		1.00742340087891	7.02650649277093	9.14758118271656	0.76812726254311	0.00496744182828245	98.8627207244639
470	7.56636138052352		9.75985659411452		1.00905096530914	7.56413224745862	9.84819271125348	0.768073134760566	0.00509029846757786	98.8347576157483
468	7.76209977930569		9.99573750513112		1.01076722145081	7.7598706462408	10.1033638180857	0.768048224923874	0.00525247243354131	98.797857694161
466	7.50209374068116		9.6439706270295		1.01238787174225	7.49986460761627	9.76343889190569	0.768158093746454	0.00535388122977467	98.7747908521891
464	7.0754960598437		9.09365013644001		1.01368534564972	7.0732669267788	9.21809987542922	0.767323745930823	0.00547413123452987	98.7474452944237
462	6.64882667866096		8.5487994625354		1.01450979709625	6.64659754559607	8.67284080180259	0.766369139880282	0.00563274027108903	98.7113882452269
460	6.24189046296429		8.03322913894948		1.01470625400543	6.23966132989939	8.15136784079873	0.765474145169724	0.00575070281723317	98.6845800173516
458	5.79005613108583		7.46826342042872		1.01420342922211	5.78782699802093	7.574338364984	0.764136313843322	0.00591907606579188	98.6463280397202
456	5.38572233424895		6.9728036642955		1.01296448707581	5.38349320118405	7.06320248094232	0.762188711948949	0.00608284245254443	98.6091368990041
454	5.08810476106918		6.62159513016701		1.01096189022064	5.08587562800428	6.6941803227409	0.759745836353851	0.00622083213722451	98.5778104999828
452	4.83370277140062		6.3239323120956		1.00839364528656	4.83147363833572	6.37701315042708	0.757638964255883	0.00637654545733186	98.5424724348375
450	4.51736382660095		5.93893522641943		1.00559830665588	4.51513469353605	5.97218320073139	0.756027493092157	0.00658329015633372	98.4955727247714
448	4.13041196516636		5.45722379505098		1.00291681289673	4.12818283210146	5.47314148951854	0.754262033972121	0.00675564868097789	98.4564905259219
446	3.87283405528814		5.13818290652713		1.00074863433838	3.87060492222324	5.14202952042322	0.752738759443113	0.00694738465655523	98.4130327212974
444	3.79537431814273		5.04657926356383		0.999439060688019	3.79314518507783	5.04374843260746	0.75204884536973	0.00719609853334441	98.356689202008
442	3.8238453873649		5.08403297998569		0.999334216117859	3.8216162543	5.08064810651559	0.752190699725697	0.00739611312361116	98.3114013978755
440	3.88564983235532		5.1599318040514		1.00051915645599	3.88342069929042	5.16261060969679	0.752220338290921	0.00763788145947693	98.2566874417052
438	3.93925941559964		5.22214921102935		1.00279068946838	3.93703028253474	5.23672260155752	0.751811883517332	0.00786090877086953	98.2062417191115
436	3.99114422608943		5.2823394676999		1.00572633743286	3.98891509302453	5.31258791963111	0.750842179624862	0.00811433930782753	98.1489506384104
