Wavelength	I1	I1 dark	R1	R1dark	XCorrect	I1c	R1c	I1c/R1c	Abs	Percent T
nm	uA	uA	uA	uA		uA	uA	uA/uA	OD	T*100
	Abs Detector Raw	Dark Offset for Abs Detector	Ref Detector Raw	Dark Offset for Ref Detector	Linear interp	Dark subtracted Abs Detector	Corrected Ref Detector	Corrected Intensity 	-Log(T)	% Transmittance
700	0.405233190355115	0.00223399569190958	0.492771353058402	6.76250455061508E-9	1.02473187446594	0.402999194663205	0.504958505372901	0.798083783865763	2.16107321897061E-4	99.9502518287196
698	0.410372020431486		0.499708459001799		1.02452707290649	0.408138024739576	0.511964837879359	0.797199328043993	2.57407622867842E-4	99.9407472658461
696	0.435516071633411		0.530516218207686		1.0254340171814	0.433282075941502	0.544009369882087	0.796460686027181	2.28432186857108E-4	99.9474153757405
694	0.476917512015042		0.58051502265784		1.02713179588318	0.474683516323133	0.596265430813728	0.79609430933356	2.86021694944187E-4	99.9341627531274
692	0.52219453151092		0.634726363242755		1.0291953086853	0.51996053581901	0.653257388388389	0.795950486073755	2.88459550141725E-4	99.933601787367
690	0.558719296144872		0.678525033909841		1.03111636638641	0.556485300452962	0.699638260494405	0.795390034929933	3.65952941716913E-4	99.915771713119
688	0.584412240847646		0.709704217510466		1.03234148025513	0.582178245155737	0.732657095466847	0.794612170902098	3.73430406617613E-4	99.9140514282076
686	0.60198799573535		0.731064591993173		1.03273642063141	0.59975400004344	0.754997023001506	0.79437929127072	4.2652984141097E-4	99.9018360868682
684	0.610010189494611		0.740716810347784		1.03241991996765	0.607776193802701	0.764730783076208	0.794758374127244	4.28530043037039E-4	99.9013759765901
682	0.606738249247018		0.736854682677669		1.03160095214844	0.604504253555108	0.760139985269112	0.795253854908179	4.11920628625979E-4	99.9051967368187
680	0.60426400139783		0.734404930584092		1.03062152862549	0.60203000570592	0.75689352521909	0.795395898692167	3.62245431889684E-4	99.916624683401
678	0.612400484425715		0.744958637253911		1.02938807010651	0.610166488733805	0.766851526950735	0.795677477699023	4.17115501297536E-4	99.9040017143307
676	0.627989035107116		0.764316304131189		1.027991771698	0.625755039415206	0.785710864669688	0.796418972363674	3.83544969768935E-4	99.9117244927825
674	0.642236232597513		0.782111075225199		1.02646279335022	0.640002236905603	0.802807912044342	0.797204695299831	4.18043154363752E-4	99.9037883195988
672	0.655472903405499		0.798757091440986		1.02487134933472	0.653238907713589	0.8186232511651	0.797972579918627	4.23721391493867E-4	99.9024821236523
670	0.667580021934345		0.814038362976981		1.02321696281433	0.665346026242435	0.832937854460147	0.798794319023556	4.60961056909971E-4	99.8939161029834
668	0.679192558039536		0.828732155173375		1.02134227752686	0.676958562347626	0.846419179917683	0.799791141799815	4.64783692042349E-4	99.8930368463302
666	0.688191552801504		0.84026442676191		1.01928961277008	0.685957557109595	0.85647279528567	0.800909919013596	4.78374831443431E-4	99.8899107671329
664	0.696199912238405		0.850660538780916		1.01711809635162	0.693965916546495	0.865222220968026	0.802066682672659	4.71772814123438E-4	99.8914292757971
662	0.705729767312254		0.862984281407454		1.01487874984741	0.703495771620345	0.875824401789642	0.803238377673465	5.02620265137033E-4	99.8843343513433
660	0.718254912807579		0.879083004299858		1.01273846626282	0.716020917115669	0.890281166643699	0.80426380332746	5.30832937218267E-4	99.8778458681624
658	0.735159127921824		0.900509783154295		1.01078748703003	0.732925132229914	0.910224013925031	0.8052140143715	5.46561733922696E-4	99.8742286684255
656	0.756185000171042		0.927007991431826		1.00910043716431	0.753951004479132	0.935444162584615	0.805981836901926	5.44366717673993E-4	99.8747334551956
654	0.786136762558873		0.964517298673774		1.00764882564545	0.783902766866963	0.971894716509117	0.806571692953132	5.57763505268345E-4	99.8716526424998
652	0.816896829950234		1.00270501496124		1.00644826889038	0.814662834258325	1.00917071970933	0.807259681982223	5.19211635996668E-4	99.88051853869
650	0.839119627431298		1.03032684430925		1.00542259216309	0.836885631739389	1.03591387978144	0.8078718203061	5.25607871284256E-4	99.8790475216282
648	0.846639716888178		1.04024599663214		1.00459063053131	0.844405721196269	1.04502137487081	0.808027224611227	6.04565800378094E-4	99.860890427224
646	0.849756031572992		1.04505891493848		1.00393974781036	0.847522035881082	1.04917617672117	0.807797636551105	6.41992440572413E-4	99.8522849838382
644	0.857622511033747		1.05566832323068		1.00340497493744	0.855388515341837	1.05926284062799	0.80753188211031	6.49480281768107E-4	99.8505634063403
642	0.873442817367016		1.07609215127407		1.00290107727051	0.871208821675106	1.07921397097298	0.807262364190541	6.5357454290503E-4	99.8496220811076
640	0.893008489238956		1.1011365279581		1.00236213207245	0.890774493547046	1.10373755108845	0.807052811303381	6.55243320603557E-4	99.849238409407
638	0.916034447398902		1.13041651816938		1.00166118144989	0.913800451706992	1.13229433834627	0.807034373272243	6.59713495874081E-4	99.848210670585
636	0.941034105502133		1.16218478915121		1.00077903270721	0.938800109810223	1.16309016234601	0.807160218702748	6.97704367897126E-4	99.8394766091552
634	0.963409906851275		1.19076704987309		0.999723374843597	0.961175911159366	1.19043764699105	0.807413906632437	7.02871063412554E-4	99.8382888503207
632	0.984294174252051		1.21757826521067		0.998525381088257	0.982060178560141	1.21578279452173	0.807759562797949	7.59655379118392E-4	99.8252357756518
630	1.00484041581283		1.24393094173172		0.997326076030731	1.00260642012092	1.24060475822609	0.80815941860043	7.53127066045284E-4	99.8267363595114
628	1.02687749082619		1.2722889837045		0.995982348918915	1.02464349513428	1.26717736375833	0.808603060975839	7.7597434675105E-4	99.8214848318718
626	1.05055226537101		1.30268047199577		0.994540870189667	1.0483182696791	1.29556896347217	0.809156671111951	8.01614357722267E-4	99.815591714362
624	1.07355537478555		1.33208333818312		0.993056654930115	1.07132137909365	1.32283421718872	0.809868209616178	7.93262921728501E-4	99.8175111758684
622	1.09126414264974		1.35504551131853		0.991701006889343	1.08903014695783	1.34379999124909	0.810410890050354	8.12975328446061E-4	99.8129806123791
620	1.10483083383276		1.3729088896839		0.990615010261536	1.10259683814085	1.36002414714333	0.810718574708255	8.2549995834358E-4	99.8101021447327
618	1.11545953768527		1.38727405733233		0.990181982517242	1.11322554199336	1.37365376968795	0.810412031443884	8.42116398806829E-4	99.8062834066139
616	1.12483999559926		1.40007582730071		0.990417122840881	1.12260599990735	1.38665906593653	0.809576072074471	8.40152030268522E-4	99.8067348440017
614	1.13619005236355		1.41549942061347		0.991193890571594	1.13395605667164	1.40303437111675	0.808216876233093	8.73563212926292E-4	99.7990567985294
612	1.14676287477473		1.42991626672849		0.992228329181671	1.14452887908282	1.41880342149576	0.806686015654104	8.82319376320822E-4	99.7970446890619
610	1.16003749724272		1.4477816151209		0.993061780929565	1.15780350155081	1.43773658239346	0.805295987964201	8.98538340572358E-4	99.7933177835998
608	1.17586868004079		1.46877781395527		0.993314802646637	1.17363468434888	1.45895873768344	0.804433089185509	9.04519870395778E-4	99.7919433415548
606	1.19457276368751		1.49339009225236		0.992952227592468	1.1923387679956	1.48286501205166	0.804077753743686	9.3318473611573E-4	99.785356962093
604	1.21671547224537		1.52235055684893		0.992071509361267	1.21448147655346	1.51028060800119	0.804142932193761	9.51881602226181E-4	99.7810611826679
602	1.24062405040629		1.55344439499091		0.990931510925293	1.23839005471438	1.53935699476559	0.804485287639832	9.80208637437565E-4	99.7745531343885
600	1.26874276742885		1.58974033600799		0.989943742752075	1.26650877173694	1.57375349153719	0.804769475364187	0.00100365775917292	99.769166092695
598	1.29914921778437		1.6289788504433		0.989287972450256	1.29691522209246	1.61152917742933	0.804773031885939	0.00101622123737039	99.766279964353
596	1.33195181962896		1.67124358369163		0.988997519016266	1.32971782393705	1.65285575125478	0.804497200029453	0.00104987004409895	99.7585504481693
594	1.36542838434269		1.7143962765781		0.989019095897675	1.36319438865079	1.69557064878336	0.803973806475673	0.00106834382605728	99.7543070635759
592	1.39891441279212		1.75750830455712		0.989216387271881	1.39668041710022	1.73855600894474	0.803356584380599	0.00105935580917719	99.7563715675265
590	1.43075584098145		1.79885613670485		0.989368975162506	1.42852184528954	1.77973244574585	0.802661011605524	0.0011140297250248	99.7438138943444
588	1.46113990458074		1.83846085409468		0.989350080490112	1.45890590888883	1.81888138728601	0.802089635468589	0.00115585723814299	99.734207889762
586	1.48833849878546		1.87399535384001		0.98914635181427	1.48610450309356	1.85365566087863	0.801715515161615	0.00116672890910389	99.7317112798218
584	1.51375744305739		1.90756224354212		0.988804697990417	1.51152344736548	1.88620650143679	0.801356291696641	0.00120702382116214	99.7224583551886
582	1.53950797724687		1.94160891229505		0.988359570503235	1.53727398155496	1.9190077439574	0.801077528944606	0.00121869982691002	99.7197773532563
580	1.56574747393063		1.97641328415117		0.987916827201843	1.56351347823872	1.95253193423741	0.80076205199142	0.00126701130708214	99.7086850131542
578	1.59226238330485		2.01142064766814		0.987463474273682	1.59002838761294	1.98620441429447	0.800536126175987	0.00127495759848396	99.7068606588256
576	1.62050074003171		2.04877087147097		0.987005352973938	1.6182667443398	2.0221478104843	0.800271244243135	0.0012855333729199	99.7044326647502
574	1.64946543201708		2.08718721934931		0.986572206020355	1.64723143632517	2.05916089269925	0.799952758507329	0.00127467519309402	99.7069254944733
572	1.67857593933766		2.12581716773762		0.986202597618103	1.67634194364575	2.09648640621481	0.799595904212124	0.00132754618892246	99.6947879154984
570	1.7081216409361		2.16511529708781		0.985956788063049	1.70588764524419	2.13471011743533	0.799119108168965	0.0013607974312876	99.6871551943995
568	1.73535243259412		2.20165364579998		0.985915243625641	1.73311843690221	2.17064388391091	0.798435178496253	0.0014119733751506	99.6754090546145
566	1.76376516159717		2.23965791810906		0.986069560050964	1.76153116590526	2.20845849130616	0.797629284335533	0.0014487798830217	99.6669619100533
564	1.79495126705399		2.28136490412029		0.98643833398819	1.79271727136208	2.25042578856875	0.796612481277256	0.00148610796448145	99.6583957947849
562	1.82730483137784		2.32433458731698		0.986926913261414	1.82507083568593	2.2939483529734	0.795602408973283	0.00149261308701725	99.6569030628987
560	1.86126398745458		2.36956171303771		0.987455606460571	1.85902999176267	2.33983699171573	0.794512608504196	0.00152206552716932	99.6501448848145
558	1.89587055188211		2.41573232019997		0.987996757030487	1.8936365561902	2.38673569152998	0.793400192116084	0.00158007238221101	99.6368359303236
556	1.93237394059592		2.46441596446157		0.988564491271973	1.93013994490401	2.43623410750531	0.792263739743987	0.00165704024741479	99.6191793508319
554	1.96773681934209		2.5117366711535		0.989157021045685	1.96550282365018	2.48450195660022	0.791105363563393	0.00170980072117334	99.6070778020699
552	2.00423382237008		2.56032944815284		0.989745855331421	2.00199982667817	2.5340754528991	0.790031656077088	0.00172695492951542	99.6031434973734
550	2.04007452985908		2.60764787870295		0.990298986434937	2.03784053416717	2.58235104456184	0.789141560927066	0.00170273823996296	99.6086976219494
548	2.08159497365351		2.66353187036667		0.990660965442657	2.0793609779616	2.63865704748538	0.78803760418324	0.00173065830476708	99.6022941514589
546	2.12359171139135		2.71917228105179		0.990815043449402	2.12135771569944	2.69419679509635	0.787380387193867	0.00176829386062791	99.5936630832743
544	2.16298574856867		2.77147365929833		0.990794599056244	2.16075175287676	2.74596112635918	0.786883591371763	0.0018332606523549	99.5787658255129
542	2.20354776575936		2.82541186145661		0.990690350532532	2.20131377006745	2.79910826072567	0.786433951467372	0.00188790408318075	99.5662374989366
540	2.24531723862431		2.8811523378715		0.990695714950562	2.2430832429324	2.8543452685495	0.785848603407489	0.00194480746708098	99.5531926988822
538	2.29385755731557		2.94555013659254		0.990894556045532	2.29162356162366	2.91872958820779	0.785144184265044	0.00199889999754503	99.540793856659
536	2.3445227050999		3.01230811972423		0.991336405277252	2.34228870940799	2.98621069629098	0.784368200246964	0.00201039814813711	99.5381585022288
534	2.40135313230671		3.08698022729845		0.991989970207214	2.3991191366148	3.06225341699971	0.783448921404216	0.00203151403693613	99.5333189620601
532	2.45953522717639		3.16371808756874		0.992775619029999	2.45730123148448	3.14086217610881	0.782365189461706	0.00210459301977928	99.5165718421601
530	2.5193831385959		3.24233685791265		0.993559658527374	2.51714914290399	3.22145509465946	0.781370240757641	0.00214225851512576	99.5079413423693
528	2.58185550538353		3.32472671447947		0.994197487831116	2.57962150969162	3.30543494053722	0.780418176759627	0.00217392595791361	99.5006857881615
526	2.64378368835423		3.40620482976388		0.994674623012543	2.64154969266232	3.38806549822239	0.779663112784642	0.00223460277267393	99.4867851672715
524	2.7057289198525		3.48758844948075		0.995013654232025	2.70349492416059	3.47019812084646	0.779060684725733	0.00228494632224137	99.475253297018
522	2.77156005690917		3.57394045296683		0.995269954204559	2.76932606121726	3.55703554422361	0.778548886224784	0.00232799196292013	99.465394171497
520	2.83670385172098		3.65922448582918		0.99559760093689	2.83446985602907	3.64311511264832	0.77803466769091	0.00235212390109017	99.4598674467599
518	2.90032199487122		3.74276830122552		0.995971322059631	2.89808799917931	3.72768988639921	0.777448792012778	0.00241171605926014	99.4462208963744
516	2.96202191011446		3.82365107020822		0.996365666389465	2.95978791442255	3.80975463987088	0.776897253027	0.00247629708408959	99.4314340141075
514	3.02383536577192		3.90430155816721		0.996767938137054	3.02160137008001	3.89168260725897	0.776425437275886	0.00250608983909347	99.4246132165372
512	3.08047883008885		3.97856520720941		0.997182905673981	3.07824483439694	3.96735720699503	0.775893037553953	0.00256921667286595	99.4101624114612
510	3.14065046634181		4.05728066475245		0.997619688510895	3.1384164706499	4.04762306622521	0.775372711169167	0.00264415878379763	99.393009615426
508	3.21059075114347		4.14855509535228		0.998028337955475	3.20835675545156	4.14037553998198	0.774895109023256	0.00268825576152798	99.3829180554205
506	3.28519245043973		4.24553574588123		0.998419940471649	3.28295845474782	4.23882753992118	0.774496821073514	0.00275011766120653	99.3687627333644
504	3.35848398410119		4.34068763665186		0.998628556728363	3.35624998840928	4.33473462304507	0.774268849254625	0.00282843117729228	99.3508458222966
502	3.43261831373285		4.43687737297123		0.998702704906464	3.43038431804094	4.43112142697092	0.774157146125856	0.00287111583592071	99.3410815984338
500	3.5287458749473		4.56245929855116		0.998041987419128	3.52651187925539	4.55352593909562	0.774457404311129	0.00294998463299719	99.3230426857669
498	3.69184678324991		4.77555034337277		0.996963620185852	3.689612787558	4.76104995196673	0.774957798128933	0.00301517192268682	99.3081354872321
496	3.91636095377708		5.06575660160319		0.996381938457489	3.91412695808517	5.04742837572117	0.775469539481265	0.00307259124419564	99.2950065411789
494	4.13651209848033		5.3466314558745		0.996273338794708	4.13427810278842	5.32670636511159	0.776141544025546	0.00312150240220576	99.2838243583859
492	4.2367112586118		5.47161602944359		0.997795403003693	4.23447726291989	5.45955331443254	0.775608739221557	0.00320420147250654	99.2649203690043
490	4.25876463142032		5.49996102069151		0.999251484870911	4.25653063572841	5.49584420990068	0.774499871750428	0.0032707192892596	99.2497178268921
488	4.35773911269551		5.63088025844963		1.00037968158722	4.3555051170036	5.63301819323853	0.773209843744448	0.00337425407931906	99.2260597461176
486	4.62516733616117		5.97797143983015		1.00112116336823	4.62293334046926	5.9846737156547	0.772462052254679	0.00347060167180673	99.2040490322171
484	4.94994840645295		6.39256894606112		1.00167071819305	4.94771441076104	6.40324912052586	0.772688102185648	0.0035246721431746	99.1916987122947
482	5.15238705122698		6.64649632072256		1.00221765041351	5.15015305553507	6.66123591925912	0.773152777946931	0.00358661873459382	99.1775512854093
480	5.2004473086972		6.70430482785335		1.00296688079834	5.19821331300529	6.72419569433075	0.773060979975339	0.00367409220724166	99.1575774391807
478	5.33554626774271		6.88364131864817		1.00383603572845	5.3333122720508	6.91004720589993	0.771819947553631	0.00381697493406034	99.1249599980727
476	5.71946227244363		7.38154091100963		1.00481963157654	5.71722827675172	7.41711721187274	0.770815414322971	0.00386179210860725	99.1147312901235
474	6.36468009213109		8.21142026466475		1.0059871673584	6.36244609643918	8.26058340523644	0.770217523910718	0.00395441981128952	99.0935940404884
472	7.04435448094169		9.08159902470932		1.00742340087891	7.04212048524978	9.14901536807851	0.769713483029024	0.00407152714998784	99.0668770935364
470	7.58564649913637		9.76355568514541		1.00905096530914	7.58341250344446	9.85192528212183	0.769739140958162	0.00414930249177264	99.0491373554811
468	7.78107939348767		9.99728004568986		1.01076722145081	7.77884539779576	10.1049229670122	0.7698074911793	0.00425882920391544	99.0241608500168
466	7.51799582708096		9.64226345305795		1.01238787174225	7.51576183138905	9.76171056917313	0.769922625561483	0.0043574097741654	99.0016858916353
464	7.0904387599793		9.09184526865876		1.01368534564972	7.08820476428739	9.21627030689907	0.76909688282269	0.00447171835974444	98.9756315575984
462	6.66176537489833		8.54509919211749		1.01450979709625	6.65953137920642	8.66908684070183	0.768192948297571	0.00460043234335717	98.9463020111858
460	6.25741964897495		8.03395546857398		1.01470625400543	6.25518565328304	8.1521048515012	0.76730927376764	0.00471078211530638	98.9211639648382
458	5.80511248619394		7.4689999532533		1.01420342922211	5.80287849050203	7.5750853585907	0.766047934221776	0.00483396933462036	98.8931090492392
456	5.40210344333313		6.97672000292168		1.01296448707581	5.39986944764122	7.0671695923809	0.764078090536105	0.00500760827666838	98.8535776639145
454	5.10033193762789		6.62093510162398		1.01096189022064	5.09809794193598	6.69351305852934	0.761647567929913	0.00513510117851617	98.8245621450152
452	4.8439995768733		6.32113195716388		1.00839364528656	4.84176558118139	6.37418928980258	0.759589237321087	0.00526004459603986	98.7961351143395
450	4.52815932310228		5.93689616956159		1.00559830665588	4.52592532741037	5.97013272810257	0.758094590779525	0.00539748131506184	98.7648750615987
448	4.14092142839059		5.45602002965615		1.00291681289673	4.13868743269868	5.47193421246123	0.75634817086683	0.00555613564324282	98.7288013518136
446	3.88151909694514		5.13521795949871		1.00074863433838	3.87928510125323	5.13906235323068	0.754862431045327	0.00572385223423131	98.6906814543487
444	3.80350377461565		5.04209205467251		0.999439060688019	3.80126977892374	5.0392637402657	0.754330389288836	0.00588054310193302	98.6550808657063
442	3.8341433384205		5.08186763106105		0.999334216117859	3.83190934272859	5.07848419874311	0.7545380063754	0.00604295227138059	98.6181946171043
440	3.89503514444222		5.15571722887293		1.00051915645599	3.89280114875031	5.15839384599156	0.754653728461484	0.00623523094560832	98.5745422579629
438	3.94872277381002		5.21720610332675		1.00279068946838	3.94648877811811	5.23176569867231	0.754332094634824	0.00640750880520562	98.535447026468
436	3.99914735669147		5.27478420743863		1.00572633743286	3.99691336099956	5.30498939489472	0.753425325382555	0.00662278671164189	98.4866155330362
