Wavelength	I1	I1 dark	R1	R1dark	XCorrect	I1c	R1c	I1c/R1c	Abs	Percent T
nm	uA	uA	uA	uA		uA	uA	uA/uA	OD	T*100
	Abs Detector Raw	Dark Offset for Abs Detector	Ref Detector Raw	Dark Offset for Ref Detector	Linear interp	Dark subtracted Abs Detector	Corrected Ref Detector	Corrected Intensity 	-Log(T)	% Transmittance
700	0.40675481369639	0.00222093362969828	0.494183976766324	7.19785687431496E-9	1.02473187446594	0.404533880066692	0.506406065466915	0.798833007052758	-8.70712015420444E-5	100.020050894993
698	0.41256844634481		0.501871368398204		1.02452707290649	0.410347512715111	0.51418079666619	0.798060750957046	-1.06797141109916E-4	100.024593974331
696	0.437317936719736		0.532342685861145		1.0254340171814	0.435097003090038	0.545882291498801	0.797052789339282	9.35054488781287E-5	99.9784718923597
694	0.478922868898368		0.58243087629727		1.02713179588318	0.47670193526867	0.598233264555881	0.796849596156385	3.57960303411864E-5	99.9917579990864
692	0.524461876284762		0.63678143619503		1.0291953086853	0.522240942655064	0.655372459381814	0.796861288842794	-2.70741553934974E-5	100.006234248983
690	0.560788713297811		0.680210143672489		1.03111636638641	0.558567779668112	0.701375804300929	0.796388720915236	-5.87234545443219E-5	100.01352248931
688	0.586740926892278		0.711633842559096		1.03234148025513	0.584519993262579	0.734649126996455	0.795645120620146	-2.08511486516832E-5	100.004801269663
686	0.604127408944199		0.732803394382559		1.03273642063141	0.601906475314501	0.756792747107702	0.795338588556586	5.92375586371293E-5	99.9863609782528
684	0.612556412816768		0.742842033821864		1.03241991996765	0.61033547918707	0.766924905675765	0.795821696061991	3.59890650920016E-5	99.9917135548657
682	0.609127888754446		0.738772620432926		1.03160095214844	0.606906955124748	0.762118531234487	0.796341947153121	-4.07777592163677E-5	100.00938986687
680	0.606658846265064		0.73643163204835		1.03062152862549	0.604437912635365	0.758982286931567	0.796379471619821	-2.68239118214642E-5	100.006176624695
678	0.614786442104733		0.746964042613236		1.02938807010651	0.612565508475034	0.768915866855205	0.796661292711218	2.63151978193548E-5	99.99394088535
676	0.630680492991494		0.766618610311893		1.027991771698	0.628459559361795	0.788077616031843	0.797458964164263	-3.89748821571077E-6	100.000897433853
674	0.645050111041798		0.784490013861276		1.02646279335022	0.642829177412099	0.805249803595066	0.798297838189052	-4.57626574063727E-5	100.010537796463
672	0.658009532940135		0.800805928008821		1.02487134933472	0.655788599310436	0.820723044616763	0.79903763347678	8.72337997872427E-6	99.9979913877029
670	0.670740493676524		0.816877065358216		1.02321696281433	0.668519560046826	0.835842462443548	0.799815264341128	4.26836146393496E-5	99.9901722174798
668	0.681714239125463		0.830720188988298		1.02134227752686	0.679493305495765	0.848449642457373	0.800864625893108	2.06117853028276E-5	99.9952540736648
666	0.690844128004998		0.842337786785927		1.01928961277008	0.6886231943753	0.858586149177933	0.802043213758611	8.87816566410237E-6	99.997955747704
664	0.699544050502536		0.853525187206969		1.01711809635162	0.697323116872838	0.868135906279045	0.803241879329314	-1.8922992852392E-5	100.004357275052
662	0.708861351115096		0.865512605465861		1.01487874984741	0.706640417485398	0.878390343707418	0.804471978258418	-3.74271298038597E-5	100.008618286469
660	0.721697185273542		0.881934118884318		1.01273846626282	0.719476251643844	0.893168599614207	0.805532406708669	4.30150628756776E-5	99.9900959062326
658	0.738192238073466		0.903121386396563		1.01078748703003	0.735971304443768	0.912863789363355	0.806222475926059	1.64760208534119E-4	99.9620697553279
656	0.759390013961571		0.929986143181495		1.00910043716431	0.757169080331872	0.938449416377833	0.806829933630674	2.39261083204979E-4	99.9449232724488
654	0.789555345872286		0.967410605453078		1.00764882564545	0.787334412242588	0.974810153248832	0.80767974114608	9.77380418747191E-5	99.9774975163648
652	0.821074778401088		1.00634749353743		1.00644826889038	0.81885384477139	1.01283668552865	0.808475696497892	3.78108188658167E-5	99.9912941161966
650	0.842428599116544		1.0328749822573		1.00542259216309	0.840207665486845	1.03847583480465	0.809077724610607	5.32152235541776E-5	99.9877474926334
648	0.850685073974628		1.04359017527338		1.00459063053131	0.84846414034493	1.04838090496327	0.809309036751923	7.67411826379175E-5	99.9823312507913
646	0.853451877411589		1.04788034812658		1.00393974781036	0.851230943781891	1.05200872520742	0.809148178513499	8.34740603182596E-5	99.9807812343474
644	0.861759479072354		1.05905613167943		1.00340497493744	0.859538545442656	1.06266218404277	0.80885398798388	1.0770686653714E-4	99.9752026525204
642	0.877415993808472		1.07909268226794		1.00290107727051	0.875195060178773	1.0822232063025	0.808701065623005	1.84630886377168E-5	99.995748807099
640	0.897531381160486		1.10470048011108		1.00236213207245	0.895310447530788	1.10730992133074	0.808545494160142	3.58346799716002E-5	99.991749100414
638	0.920869511137845		1.13433445122163		1.00166118144989	0.918648577508147	1.13621877936016	0.808513812828784	3.84368701300112E-5	99.9911499752195
636	0.945301147909211		1.16536517103078		1.00077903270721	0.943080214279513	1.1662730214114	0.80862730849953	8.06201845173135E-5	99.9814382394016
634	0.967916269513557		1.19407430740945		0.999723374843597	0.965695335883859	1.19374398922154	0.808963516971173	7.16714065797182E-5	99.9834984104237
632	0.989095617010059		1.22117175368414		0.998525381088257	0.98687468338036	1.21937098353443	0.809330955637338	8.91321111826627E-5	99.9794786788596
630	1.009705104608		1.24759230082917		0.997326076030731	1.0074841709783	1.2442563266935	0.809707894880148	8.3549950455585E-5	99.9807637633574
628	1.031312662552		1.27526983978108		0.995982348918915	1.02909172892231	1.27014624336167	0.810215149870171	8.36522947859496E-5	99.9807402022403
626	1.05517046509715		1.30576326100839		0.994540870189667	1.05294953146745	1.29863492270642	0.810812579468488	8.93749085239571E-5	99.979422784194
624	1.07849256489503		1.3354826235887		0.993056654930115	1.07627163126534	1.32620989975041	0.811539433891939	6.95352981169493E-5	99.9839901876192
622	1.09625387745552		1.35834046275894		0.991701006889343	1.09403294382582	1.34706759747845	0.812158904180994	6.13094536630029E-5	99.9858839729985
620	1.10959584517565		1.37591541526909		0.990615010261536	1.10737491154595	1.36300245608549	0.812452616355736	8.13069321521767E-5	99.9812801393915
618	1.12074967719989		1.39096960081215		0.990181982517242	1.11852874357019	1.37731302982621	0.812109316726156	1.33776110858227E-4	99.9692016557979
616	1.13167408934073		1.40572508452723		0.990417122840881	1.12945315571104	1.39225418659383	0.811240624439605	1.19129700302579E-4	99.9725731346476
614	1.1409488277915		1.4184881178296		0.991193890571594	1.13872789416181	1.40599674910662	0.809907914001478	1.48637591425943E-4	99.9657807858815
612	1.15207358172842		1.4334985026667		0.992228329181671	1.14985264809872	1.42235781704349	0.808413069004536	1.42470374324151E-4	99.9672003642458
610	1.16558051198169		1.45159303947842		0.993061780929565	1.16335957835199	1.44152156182148	0.807035849593532	1.63515036171605E-4	99.9623563585204
608	1.18139425187118		1.47278652318655		0.993314802646637	1.17917331824148	1.46294064746994	0.806029499748186	2.25182587052807E-4	99.9481632330818
606	1.20053875863062		1.49824317591686		0.992952227592468	1.19831782500092	1.48768389185473	0.805492236329148	3.75660195826569E-4	99.9135384428692
604	1.22200749258179		1.52603840567359		0.992071509361267	1.21978655895209	1.51393921731907	0.805703785857488	3.02031685636389E-4	99.9304788114886
602	1.24647769559023		1.55747060347092		0.990931510925293	1.24425676196054	1.54334669118658	0.806206906760469	2.58984998874299E-4	99.9403842774659
600	1.27484167675319		1.5938810210876		0.989943742752075	1.27262074312349	1.57785253639148	0.806552395595821	2.27109197511272E-4	99.9477198455706
598	1.3053946828473		1.63299455289495		0.989287972450256	1.3031737492176	1.615501863135	0.806668057125417	1.92463430951243E-4	99.9556934755353
596	1.3374587128236		1.67406679816728		0.988997519016266	1.3352377791939	1.65564790293628	0.80647447855662	1.74156680964943E-4	99.959906981656
594	1.37250527828227		1.71897767257466		0.989019095897675	1.37028434465257	1.70010173647926	0.806001379358794	1.66500700186238E-4	99.9616691451278
592	1.4053421325869		1.76124163584103		0.989216387271881	1.40312119895721	1.74224908099924	0.805350517477365	1.61985487347882E-4	99.9627084181947
590	1.43851054910852		1.80400686394163		0.989368975162506	1.43628961547882	1.78482841504272	0.804721396955368	1.71674241485933E-4	99.96047835693
588	1.46819513010093		1.8425190703495		0.989350080490112	1.46597419647123	1.82289638343364	0.804200507386984	1.94611249725652E-4	99.9551991423279
586	1.49608809780047		1.87879297016324		0.98914635181427	1.49386716417077	1.85840120513153	0.803845348381081	1.89740829469214E-4	99.9563201018995
584	1.52129324624994		1.91194970643399		0.988804697990417	1.51907231262024	1.89054484492606	0.803510330208355	2.05661348863832E-4	99.952655935231
582	1.54786951473599		1.94678666777691		0.988359570503235	1.54564858110629	1.92412522771134	0.803299368900625	2.06238240100295E-4	99.9525231640922
580	1.57420046508901		1.98159573511454		0.987916827201843	1.57197953145931	1.95765176432017	0.802992421895428	2.40238791882166E-4	99.9446982709514
578	1.60006994459051		2.01589387152722		0.987463474273682	1.59784901096081	1.99062155903767	0.802688488781999	2.57091011913355E-4	99.9408201250424
576	1.62971354329267		2.05486284297607		0.987005352973938	1.62749260966297	2.0281606185403	0.802447594527451	2.73150963902043E-4	99.9371244412072
574	1.65803937889163		2.09218386145675		0.986572206020355	1.65581844526193	2.06409044049637	0.802202467864607	2.46642596492878E-4	99.9432245667539
572	1.68691228292289		2.13043172976846		0.986202597618103	1.68469134929319	2.10103729884714	0.801837906551016	2.90344175012877E-4	99.9331681255301
570	1.71581952063791		2.16889323990625		0.985956788063049	1.71359858700822	2.13843500537285	0.801333022842768	3.27555869084573E-4	99.9246059095101
568	1.74369526938094		2.20615231052059		0.985915243625641	1.74147433575125	2.1750791856057	0.800648706160229	3.8616631447211E-4	99.9111214404982
566	1.77262877803561		2.24502799020299		0.986069560050964	1.77040784440592	2.21375375550397	0.799731153478212	4.8382851057139E-4	99.8886564014348
564	1.80307208235733		2.28552346217159		0.98643833398819	1.80085114872763	2.25452794921522	0.798770824444422	4.62980557535945E-4	99.8934515901575
562	1.83570611965557		2.32876011501865		0.986926913261414	1.83348518602587	2.29831602493789	0.797751556414185	4.91945539622712E-4	99.8867894849006
560	1.87115311940125		2.37561242665536		0.987455606460571	1.86893218577155	2.34581180237067	0.796710198099783	4.98780498830475E-4	99.8852174714682
558	1.9052087955347		2.42090739529949		0.987996757030487	1.902987861905	2.39184864851556	0.795613829113327	5.32627738613081E-4	99.8774331055459
556	1.94169056935226		2.46914911498353		0.988564491271973	1.93946963572257	2.44091313161279	0.794567250511328	5.51692684830469E-4	99.8730487162077
554	1.97907386810613		2.51865090452431		0.989157021045685	1.97685293447644	2.49134121865347	0.793489434395859	5.68665373093632E-4	99.8691456479686
552	2.01453463127949		2.56522857110502		0.989745855331421	2.0123136976498	2.53892433910489	0.792585137987707	4.96271910545247E-4	99.8857944339223
550	2.0523874279469		2.61525031632281		0.990298986434937	2.0501664943172	2.5898797304001	0.7916068341909	5.09660773147646E-4	99.8827151026877
548	2.09257679452309		2.66927028305407		0.990660965442657	2.09035586089339	2.64434186850711	0.790501366630603	5.47668449302556E-4	99.8739741586201
546	2.13400166101922		2.72384650541713		0.990815043449402	2.13178072738953	2.69882808648263	0.789891263569836	5.52391740516919E-4	99.8728879571621
544	2.17492424386352		2.77777729321245		0.990794599056244	2.17270331023382	2.75220673236437	0.789440445982519	5.81054204257725E-4	99.8662967876022
542	2.21635175646841		2.83223028090051		0.990690350532532	2.21413082283872	2.80586320264333	0.789108613974067	5.56531466432827E-4	99.8719359662221
540	2.25781608360141		2.88726979014573		0.990695714950562	2.25559514997171	2.8604058018727	0.788557745371297	6.04742434006692E-4	99.860849812414
538	2.30775711405089		2.95318628064256		0.990894556045532	2.30553618042119	2.92629620134475	0.787868357058903	6.54772610201921E-4	99.849346631138
536	2.35677009462428		3.01793272907675		0.991336405277252	2.35454916099458	2.99178657587602	0.787004387271558	7.2039225187716E-4	99.834261052912
534	2.41540205803182		3.09464301460257		0.991989970207214	2.41318112440212	3.06985482471736	0.786089656413738	7.3967237879078E-4	99.8298290958438
532	2.47401322629222		3.17135439876119		0.992775619029999	2.47179229266252	3.14844331924779	0.785083942134637	7.49876912569803E-4	99.8274834411385
530	2.5338195755875		3.24930280026763		0.993559658527374	2.5315986419578	3.22837617353445	0.784170897651678	7.04768629621484E-4	99.8378526270729
528	2.5976787437518		3.3328164248588		0.994197487831116	2.5954578101221	3.31347770984081	0.783303235272644	7.33623390109661E-4	99.8312195664504
526	2.6587439797608		3.41320473959167		0.994674623012543	2.6565230461311	3.39502813045845	0.78247453159464	8.16450695884904E-4	99.8121818792399
524	2.72302913011991		3.49763690196464		0.995013654232025	2.72080819649021	3.48019646783865	0.781797298409407	9.12086960959125E-4	99.7902045948619
522	2.78721871257076		3.5818332658109		0.995269954204559	2.78499777894106	3.56489102326817	0.78122942910829	9.85823852635641E-4	99.7732631065651
520	2.85002013584746		3.66386296237315		0.99559760093689	2.84779920221776	3.64773316833406	0.780703815437894	0.00104013554139021	99.7607865133359
518	2.91693695874714		3.75129829480622		0.995971322059631	2.91471602511744	3.73618551494934	0.780131504031315	0.00108556683681441	99.7503511407896
516	2.97984975897652		3.83288281033059		0.996365666389465	2.97762882534682	3.81895282833607	0.779697723222255	0.00107260728545003	99.7533277825407
514	3.0406106455276		3.91124257939849		0.996767938137054	3.0383897118979	3.89860119424629	0.779353814486611	0.00102496959255069	99.7642703093887
512	3.09916058331949		3.98676332353783		0.997182905673981	3.09693964968979	3.97553222802233	0.779000011082893	9.92705766833941E-4	99.7716820927038
510	3.15783315294683		4.06263503672625		0.997619688510895	3.15561221931713	4.05296469269156	0.778593562635132	9.70153962868351E-4	99.7768631160182
508	3.22948970689728		4.15546922167681		0.998028337955475	3.22726877326758	4.14727603355158	0.778165896641287	0.00102701206795656	99.7638011217803
506	3.30607187305762		4.25439412738129		0.998419940471649	3.30385093942792	4.24767192421648	0.777802758398613	0.00105441838825916	99.757505687383
504	3.3804260081271		4.35019798254235		0.998628556728363	3.3782050744974	4.34423192560091	0.77763000050466	0.00110229102835605	99.7465099410331
502	3.45691202795369		4.44880015687792		0.998702704906464	3.45469109432399	4.44302874307376	0.777553172418592	0.00112102555504139	99.7422071846666
500	3.55268625946703		4.57328822917196		0.998041987419128	3.55046532583733	4.56433366609952	0.777871554879422	0.00118401437532825	99.7277419113581
498	3.71347972148979		4.7825047660463		0.996963620185852	3.71125878786009	4.76798325793761	0.778370767489942	0.001269595581621	99.7080916971899
496	3.94413423904771		5.07901316142101		0.996381938457489	3.94191330541801	5.06063697205595	0.778936194630171	0.00129518557866743	99.7022167558592
494	4.16724364696029		5.36176868162531		0.996273338794708	4.1650227133306	5.34178717911671	0.779705850059586	0.00129446513537496	99.7023821502076
492	4.26296570937829		5.47984905975925		0.997795403003693	4.26074477574859	5.4677681937999	0.779247514658724	0.00132453353091396	99.6954794908131
490	4.28601659570445		5.50910531527636		0.999251484870911	4.28379566207475	5.50498165940766	0.778167108832055	0.00136687436317988	99.6857603164087
488	4.38776861790905		5.64236679310926		1.00037968158722	4.38554768427935	5.64450908868835	0.776958211134433	0.00140260799146383	99.6775585374059
486	4.65907858715247		5.99223301391679		1.00112116336823	4.65685765352277	5.99895127885994	0.776278625554661	0.00146834315753784	99.6624724028129
484	4.9817391796883		6.40150787894307		1.00167071819305	4.97951824605861	6.41220298740952	0.776569028746592	0.00150436243075918	99.6542069950909
482	5.18602195756794		6.65610405994198		1.00221765041351	5.18380102393824	6.67086496464908	0.77708079108313	0.00154587319800274	99.6446822945206
480	5.23590922449601		6.71521263655375		1.00296688079834	5.23368829086631	6.7351358647627	0.777072414863706	0.0015609144429957	99.6412312856149
478	5.37202798334213		6.89424948229268		1.00383603572845	5.36980704971243	6.92069606240217	0.77590563164373	0.00161993088050844	99.6276919218575
476	5.764500684974		7.40014862390102		1.00481963157654	5.76227975134431	7.4358146066473	0.774935908998199	0.00169709929124117	99.6099909655402
474	6.41446433547183		8.23074802901059		1.0059871673584	6.41224340184213	8.28002688770413	0.774423016833959	0.00174622366362319	99.5987244131048
472	7.10204269998702		9.10534112948224		1.00742340087891	7.09982176635732	9.17293371957429	0.773996845873517	0.00181201721246058	99.5836368228491
470	7.64172080592853		9.78037128003014		1.00905096530914	7.63949987229883	9.86889307393323	0.774098960751444	0.00184757467047479	99.5754838386849
468	7.8326616367461		10.0059817583955		1.01076722145081	7.8304407031164	10.1137183725455	0.774239544218749	0.00189887041133578	99.5637233932001
466	7.57165140078484		9.65420603113523		1.01238787174225	7.56943046715514	9.77380108993516	0.774461276375879	0.00195293543229724	99.5513295453094
464	7.13889271110781		9.09974735696853		1.01368534564972	7.13667177747811	9.2242805375774	0.7736832968604	0.00203844937211404	99.5317295073343
462	6.71435015909326		8.56029698352311		1.01450979709625	6.71212922546356	8.68450514853539	0.77288562913634	0.0020845800526837	99.5211578266705
460	6.30593144077329		8.04649525217772		1.01470625400543	6.3037105071436	8.16482904790604	0.772056643214135	0.00218395301859848	99.4983885268821
458	5.84927114174165		7.47882702840935		1.01420342922211	5.84705020811195	7.58505201147165	0.770864879933434	0.00224596626235389	99.4841820896051
456	5.44421304728145		6.98642712239912		1.01296448707581	5.44199211365176	7.07700255924235	0.768968510057225	0.00235411224042409	99.4594120886512
454	5.14145394204591		6.63109727668854		1.01096189022064	5.13923300841621	6.70378662980124	0.766616435190537	0.00242360767146693	99.443497952028
452	4.88563521184816		6.33333283414337		1.00839364528656	4.88341427821846	6.38649257617662	0.764647295831039	0.00250908681084014	99.4239271112768
450	4.56189801174451		5.94113567525378		1.00559830665588	4.55967707811481	5.97439596740991	0.763203025542275	0.0025960198736238	99.4040273385306
448	4.17409887342028		5.46227263630184		1.00291681289673	4.17187793979058	5.478205056354	0.761541033399572	0.00267956335395193	99.3849072252377
446	3.91153483262749		5.13888434132		1.00074863433838	3.90931389899779	5.14273147939562	0.760162943498115	0.00280413401294471	99.3564042888589
444	3.83486908210751		5.0476952923304		0.999439060688019	3.83264814847781	5.04486383441222	0.759712902920076	0.00289809867431209	99.3349097008077
442	3.86696451091556		5.08853124844728		0.999334216117859	3.86474357728586	5.08514337916523	0.760006805928114	0.00304751052081052	99.3007410430167
440	3.9309539374928		5.16495319262809		1.00051915645599	3.9287330038631	5.16763460422136	0.76025750749749	0.00316837725208636	99.2731089028388
438	3.98565177005669		5.22636243780038		1.00279068946838	3.98343083642699	5.24094758519556	0.760059277768632	0.00329454112652442	99.2442739497925
436	4.03939433482091		5.28710775756967		1.00572633743286	4.03717340119122	5.31738351339434	0.759240590982706	0.00343077395340857	99.2131471264109
