Wavelength	I1	I1 dark	R1	R1dark	XCorrect	I1c	R1c	I1c/R1c	Abs	Percent T
nm	uA	uA	uA	uA		uA	uA	uA/uA	OD	T*100
	Abs Detector Raw	Dark Offset for Abs Detector	Ref Detector Raw	Dark Offset for Ref Detector	Linear interp	Dark subtracted Abs Detector	Corrected Ref Detector	Corrected Intensity 	-Log(T)	% Transmittance
700	0.405811392233626	0.00222835069815009	0.492970495865787	6.73103329829943E-9	1.02473187446594	0.403583041535476	0.505162573387448	0.798917146274684	-2.37148179262333E-4	100.054620297695
698	0.410942503945019		0.499935809206532		1.02452707290649	0.408714153246869	0.512197764351382	0.797961611106291	-1.57666925009515E-4	100.036310741873
696	0.436131069494724		0.530849246207407		1.0254340171814	0.433902718796573	0.544350868153947	0.797101179002551	-1.20675790666454E-4	100.027790488508
694	0.477673540642205		0.580902378519424		1.02713179588318	0.475445189944055	0.596663296367807	0.796840014859857	-1.20593711521838E-4	100.027771583836
692	0.522770588355823		0.634931124923127		1.0291953086853	0.520542237657673	0.653468128181616	0.796583972819254	-5.70523612693787E-5	100.013137654572
690	0.559348521183674		0.678754081478788		1.03111636638641	0.557120170485523	0.699874435223877	0.79602874808152	1.73462580352317E-5	99.9960059562469
688	0.585191846181821		0.71002141721623		1.03234148025513	0.582963495483671	0.732984553913121	0.795328485943468	-1.78945016174584E-5	100.004120446155
686	0.602619540579581		0.731115325823349		1.03273642063141	0.600391189881431	0.755049417708188	0.795168072182357	-4.48999901481324E-6	100.001033865824
684	0.611070619929076		0.741149243489085		1.03241991996765	0.608842269230925	0.765177235697833	0.795687901869778	-7.91121469753589E-5	100.018217904289
682	0.608043921755322		0.737521364991712		1.03160095214844	0.605815571057172	0.760827735411525	0.796258525892845	-1.36391942473269E-4	100.031410337368
680	0.605478267656499		0.734974508312435		1.03062152862549	0.603249916958349	0.757480544320581	0.796389981870005	-1.80195483167874E-4	100.041500152268
678	0.613971726531816		0.745940993864319		1.02938807010651	0.611743375833666	0.767862753158475	0.796683226679979	-1.31492976029088E-4	100.030281960704
676	0.629382686506295		0.765086644328682		1.027991771698	0.627154335808145	0.786502768086471	0.7973962219281	-1.49031389120875E-4	100.034321634023
674	0.64356883898116		0.782733546958739		1.02646279335022	0.64134048828301	0.803446856151038	0.798236352999614	-1.4361132876894E-4	100.033073198458
672	0.657007366196092		0.799499974269298		1.02487134933472	0.654779015497942	0.819384610524004	0.7991107070942	-1.95260022621276E-4	100.044970390384
670	0.669403926111251		0.815192869714405		1.02321696281433	0.667175575413101	0.834119165369764	0.799856427129741	-1.16110274871631E-4	100.026738953027
668	0.68078963069316		0.829586154850702		1.02134227752686	0.67856127999501	0.847291405925274	0.80085939176262	-1.1489953461008E-4	100.026460095624
666	0.689878764051523		0.841194934946293		1.01928961277008	0.687650413353373	0.857421252644688	0.801998330729893	-1.11417223280182E-4	100.025658054859
664	0.698083523821924		0.851821085181778		1.01711809635162	0.695855173123774	0.866402633746008	0.803154498867519	-1.16847182305514E-4	100.026908677749
662	0.707547928550482		0.864252751579669		1.01487874984741	0.705319577852332	0.877111745244178	0.804138790384091	1.60582803903436E-5	99.9963025126542
660	0.719503813700275		0.879976343482736		1.01273846626282	0.717275463002125	0.891185885629492	0.804855052765423	2.11681397952973E-4	99.9512704335726
658	0.736144420323236		0.901197100515581		1.01078748703003	0.733916069625085	0.910918745745248	0.805687744437237	2.91129199608399E-4	99.9329874879046
656	0.758410904890964		0.928560196203268		1.00910043716431	0.756182554192814	0.937010493129804	0.807016100392869	-1.25775636839966E-5	100.002896133002
654	0.788193444961262		0.965684854727552		1.00764882564545	0.785965094263111	0.973071203027293	0.807715912070893	-5.78989462122627E-5	100.013332613759
652	0.818783778748283		1.00370200263754		1.00644826889038	0.816555428050133	1.01017413626193	0.808331354702602	-5.69510271548327E-5	100.013114318467
650	0.841030700140008		1.03126532556301		1.00542259216309	0.838802349441858	1.03685745006794	0.80898521719345	-7.25182333257742E-5	100.016699334486
648	0.848844491706592		1.04140771256049		1.00459063053131	0.846616141008442	1.04618842383938	0.809238681786846	-4.6074595562491E-5	100.010609630472
646	0.852071593181077		1.04622141634234		1.00393974781036	0.849843242482927	1.05034325811898	0.809110008479398	-6.30026945223813E-5	100.014507958825
644	0.860088192364038		1.05705855243561		1.00340497493744	0.857859841665888	1.0606578035601	0.808799821003982	-3.18884952026309E-5	100.007342866944
642	0.875763708283223		1.0772723251726		1.00290107727051	0.873535357585073	1.08039756867874	0.808531398912118	-2.86101552059499E-5	100.006587948684
640	0.895754469358692		1.10273489784354		1.00236213207245	0.893526118660542	1.10533969656621	0.808372413870888	-5.42865690080395E-5	100.01250072573
638	0.919259347382259		1.13259032468864		1.00166118144989	0.917030996684109	1.13447175598412	0.808333034160568	-3.85813645725773E-5	100.008884082104
636	0.94360757022292		1.16345209308244		1.00077903270721	0.94137921952477	1.16435845357996	0.808496057747843	-2.04529117799548E-5	100.004709567874
634	0.966010569776581		1.19194427060907		0.999723374843597	0.963782219078431	1.19161454210962	0.808803673520267	-4.40187696020354E-5	100.010136209949
632	0.987451119570716		1.21941215239159		0.998525381088257	0.985222768872566	1.21761397744936	0.809142131348063	1.6948459237304E-5	99.9960975491887
630	1.00735802726236		1.24490095515558		0.997326076030731	1.00512967656421	1.24157217793919	0.809562016952217	4.20617222825423E-8	99.999990314931
628	1.02958073412969		1.27353015379043		0.995982348918915	1.02735238343154	1.26841354728727	0.809950654996326	5.27944159250639E-5	99.9878443753457
626	1.05373671688698		1.30452657512841		0.994540870189667	1.05150836618883	1.29740498851947	0.810470420179867	9.70644042152723E-5	99.9776525923846
624	1.0768252633129		1.33379293759786		0.993056654930115	1.07459691261475	1.32453194629604	0.811303129093854	2.44635246661047E-5	99.994367223925
622	1.09414927400465		1.35617859471619		0.991701006889343	1.0919209233065	1.34492367122665	0.811883192085243	2.46930656482413E-5	99.9943143731517
620	1.1078552976503		1.37417285827861		0.990615010261536	1.10562694695215	1.36127625343692	0.812198805467065	3.32769695339272E-5	99.9923379881482
618	1.11866434724278		1.38868725923098		0.990181982517242	1.11643599654463	1.37505309677682	0.81192209898047	3.36341317593838E-5	99.9922557548417
616	1.12941846707285		1.40320376026221		0.990417122840881	1.1271901163747	1.38975702433188	0.81106991843887	3.95213923528736E-5	99.9909002771613
614	1.13932188781904		1.41668659853091		0.991193890571594	1.13709353712089	1.40421109464673	0.80977393032702	3.76867579749863E-5	99.9913226797896
612	1.15080359600633		1.43225662785947		0.992228329181671	1.14857524530818	1.42112559414165	0.808215157086038	5.98568063166874E-5	99.9862184107544
610	1.16325265930169		1.44906937944493		0.993061780929565	1.16102430860354	1.43901541195775	0.806818536449162	7.82062958747225E-5	99.9819939561768
608	1.17959156116699		1.47068990360358		0.993314802646637	1.17736321046884	1.46085804466636	0.805939505735986	9.20015895798399E-5	99.9788180948126
606	1.19816055100791		1.49510403549221		0.992952227592468	1.19593220030976	1.48456687584088	0.805576508388931	1.24438316999906E-4	99.9713511232025
604	1.22025991380647		1.52382543101671		0.992071509361267	1.21803156310832	1.51174378867417	0.805712960247427	1.04781262972485E-4	99.9758761328583
602	1.24431374577917		1.55486243087392		0.990931510925293	1.24208539508102	1.54076217123687	0.806149981008371	8.24667146967288E-5	99.9810131399396
600	1.27279026121526		1.59160736480912		0.989943742752075	1.27056191051711	1.57560174504756	0.806397882276246	1.257745601939E-4	99.9710435304571
598	1.30280757723865		1.63029344723041		0.989287972450256	1.3005792265405	1.61282969225058	0.80639588469235	1.41333136109934E-4	99.9674621374758
596	1.33620141114593		1.67321964663446		0.988997519016266	1.33397306044778	1.65481007263378	0.806118528348479	1.75503591885539E-4	99.9595969687795
594	1.37010228756921		1.71679373891452		0.989019095897675	1.36787393687106	1.69794178484691	0.805607087992357	1.86964833569756E-4	99.9569590214187
592	1.40322791891596		1.75940991024363		0.989216387271881	1.40099956821781	1.7404371084831	0.804969947715532	1.88046389470298E-4	99.9567100914674
590	1.43595476063841		1.80161249186211		0.989368975162506	1.43372640994026	1.78245949805411	0.804352868329094	1.99582973994855E-4	99.9540548799307
588	1.4662039642435		1.84083658932407		0.989350080490112	1.46397561354535	1.82123182115756	0.803838147641666	2.10149098137573E-4	99.9516230873359
586	1.49378662263689		1.87660237522007		0.98914635181427	1.49155827193874	1.85623438659695	0.803539834575111	1.79605962294339E-4	99.9586527491935
584	1.51949548577785		1.91046715686059		0.988804697990417	1.5172671350797	1.88907889340447	0.803178279306963	2.20719730674639E-4	99.9491903163357
582	1.54492872776983		1.94415138758913		0.988359570503235	1.54270037707168	1.92152062377818	0.802853926198489	2.56713779448464E-4	99.9409069346609
580	1.57151733803393		1.97918213836937		0.987916827201843	1.56928898733578	1.95526733194273	0.802595615289369	2.73712324705067E-4	99.9369952644608
578	1.59843648277688		2.01466310230137		0.987463474273682	1.59620813207872	1.98940621984285	0.802354047231648	2.89845287453435E-4	99.93328292193
576	1.62584700653679		2.05079456437154		0.987005352973938	1.62361865583864	2.02414520624099	0.802125584089806	2.80376712301663E-4	99.9354617111016
574	1.65574471196495		2.09020789992619		0.986572206020355	1.6535163612668	2.0621410122307	0.80184446721135	2.48878643708362E-4	99.9427099914991
572	1.68428256632433		2.12800278596807		0.986202597618103	1.68205421562618	2.09864186862211	0.801496549161362	2.96450202546639E-4	99.9317631102421
570	1.71384781466622		2.16713921347095		0.985956788063049	1.71161946396807	2.13670561156279	0.801055351146943	3.09786966191223E-4	99.9286943495349
568	1.74323285342351		2.20615046256386		0.985915243625641	1.74100450272536	2.17507736413724	0.800433369144061	3.26451209845439E-4	99.9248600752528
566	1.77039804308735		2.24244764165561		0.986069560050964	1.7681696923892	2.2112093528074	0.799639206547444	3.55790706312696E-4	99.9181097107557
564	1.80123885153908		2.28340353091503		0.98643833398819	1.79901050084093	2.25243676821882	0.798695229195512	3.52124299683271E-4	99.9189532443061
562	1.83414392483759		2.32698931236647		0.986926913261414	1.83191557413944	2.2965683726031	0.797675173094458	3.62627279033784E-4	99.916536833192
560	1.86899526277676		2.37324796039377		0.987455606460571	1.8667669120786	2.34347699736535	0.796580002354329	3.9345963685516E-4	99.9094435976286
558	1.905021511506		2.42085554358695		0.987996757030487	1.90279316080785	2.39179741965295	0.795549466343995	4.05184931775481E-4	99.9067462299978
556	1.94015693194478		2.46738153310958		0.988564491271973	1.93792858124663	2.43916576339827	0.794504666442468	4.30367542402304E-4	99.9009532948977
554	1.97628335955358		2.51533574152674		0.989157021045685	1.97405500885543	2.48806200236028	0.793410697556074	4.46077919029577E-4	99.897339495322
552	2.01333014848683		2.56444387496933		0.989745855331421	2.01110179778868	2.53814768981893	0.792350187444036	4.54283477319559E-4	99.8954520532001
550	2.04948803455404		2.61222520741062		0.990298986434937	2.04725968385589	2.58688396857279	0.791399888331822	4.61670126100356E-4	99.8937530071042
548	2.08971290856699		2.66618622732721		0.990660965442657	2.08748455786884	2.64128661534572	0.790328677600027	4.69859397885736E-4	99.8918693787959
546	2.13337165801693		2.72365945613903		0.990815043449402	2.13114330731878	2.69864275570656	0.789709309545423	4.85628881748655E-4	99.8882423130854
544	2.17483537479837		2.77824834001045		0.990794599056244	2.17260702410022	2.75267344345025	0.789271618567668	5.17263571809604E-4	99.8809665621065
542	2.21629228569041		2.83314888816848		0.990690350532532	2.21406393499226	2.80677325846211	0.788828925997887	5.67330813536689E-4	99.8694525400271
540	2.25672019268031		2.8865045200917		0.990695714950562	2.25449184198216	2.85964765257187	0.788380988110387	5.47550475948115E-4	99.8740012887584
538	2.3059073563209		2.95137799677058		0.990894556045532	2.30367900562275	2.92450438316279	0.787716037933024	5.78630305478367E-4	99.8668541662485
536	2.35554145505587		3.0166345488686		0.991336405277252	2.35331310435772	2.99049964303784	0.786929739261614	5.94418127092692E-4	99.8632237921902
534	2.41263052671778		3.09158169212381		0.991989970207214	2.41040217601963	3.06681802398595	0.785961917912175	6.40697277092759E-4	99.852582766175
532	2.47262452061868		3.17012980253711		0.992775619029999	2.47039616992053	3.14722757043682	0.784943609774506	6.75653522162589E-4	99.8445459823113
530	2.53418156852475		3.25055115888644		0.993559658527374	2.5319532178266	3.22961649276129	0.783979529303744	6.94402338187914E-4	99.8402357119873
528	2.59526956970794		3.33076059178409		0.994197487831116	2.59304121900979	3.31143380622664	0.783056938699476	7.07959756934697E-4	99.8371190369832
526	2.65809148013901		3.41278000814806		0.994674623012543	2.65586312944086	3.39460566133423	0.782377511382865	7.25231631816639E-4	99.8331485975424
524	2.72198647500088		3.49631420064781		0.995013654232025	2.71975812430273	3.47888036243243	0.781791220437682	7.65445595575035E-4	99.8239048679522
522	2.7869523363699		3.58107647307053		0.995269954204559	2.78472398567175	3.56413781065674	0.78131770812718	7.86212248100759E-4	99.8191317039568
520	2.85089371795034		3.66435388221794		0.99559760093689	2.84866536725219	3.64822192741856	0.780836644241068	7.90886285975934E-4	99.8180574193157
518	2.91589646145562		3.74896396488767		0.995971322059631	2.91366811075747	3.73386058975917	0.780336608910565	8.01527159833427E-4	99.8156117553943
516	2.97687277581534		3.82810282988094		0.996365666389465	2.97464442511719	3.81419022039515	0.779888850118497	8.07171562559778E-4	99.8143144885087
514	3.03959802158333		3.90946913251555		0.996767938137054	3.03736967088518	3.89683347971871	0.77944559003954	8.20040926106059E-4	99.8113567542486
512	3.09591866063112		3.98276623821726		0.997182905673981	3.09369030993297	3.97154640333365	0.778963656911117	8.53875598362898E-4	99.8035810326177
510	3.15566338507689		4.06024832737581		0.997619688510895	3.15343503437874	4.05058366491852	0.778513739066829	8.8838963962215E-4	99.7956498057983
508	3.2290218358054		4.15519028350185		0.998028337955475	3.22679348510725	4.14699764581432	0.778103524694338	8.93792876935049E-4	99.7944082145581
506	3.30577266182083		4.25420669874622		0.998419940471649	3.30354431112268	4.2474847921959	0.777764835601634	9.21453315630277E-4	99.7880524598268
504	3.3783873963564		4.34771392493508		0.998628556728363	3.37615904565825	4.34175127520393	0.777603052698977	9.62261187782205E-4	99.7786764558793
502	3.45416668353858		4.44535733087004		0.998702704906464	3.45193833284043	4.43959038389339	0.777535320682711	9.80116274790089E-4	99.7745743537299
500	3.54975244412418		4.5691128629777		0.998041987419128	3.54752409342603	4.56016647579072	0.777937409140508	0.00100286472132778	99.7693482750621
498	3.71590630651615		4.78449264727334		0.996963620185852	3.713677955818	4.76996510366762	0.778554533441463	0.00100418680417996	99.7690445568496
496	3.941367924831		5.07408154522978		0.996381938457489	3.93913957413285	5.05572319922074	0.779144628554824	0.00101925362363696	99.7655833659534
494	4.16925807941919		5.36351093672652		0.996273338794708	4.16702972872104	5.34352294188851	0.779828172169937	0.00106351214785692	99.7554168713493
492	4.26829272070015		5.4855685515483		0.997795403003693	4.266064370002	5.47347507688032	0.779406923404409	0.00108263607367106	99.7510242915001
490	4.28869840533917		5.5112135033689		0.999251484870911	4.28647005464102	5.50708826995599	0.778355066147373	0.00111431297948309	99.7437488397053
488	4.39027388758053		5.64417898510923		1.00037968158722	4.38804553688238	5.64632196921126	0.777151136759448	0.0011661418824039	99.7318460851655
486	4.66108091023642		5.99290415085822		1.00112116336823	4.65885255953827	5.99962316872287	0.77652419635715	0.00119276245379054	99.725733096232
484	4.98650496429967		6.40560452105411		1.00167071819305	4.98427661360152	6.41630647432266	0.776813986917245	0.00121186053834669	99.7213477570523
482	5.19458673743156		6.66479907756048		1.00221765041351	5.19235838673341	6.67957926524486	0.777348120374924	0.00123638660677798	99.7157163165394
480	5.24629565399176		6.72634475978151		1.00296688079834	5.24406730329361	6.74630101614131	0.77732483189626	0.00128530353878992	99.7044854296103
478	5.37589206460674		6.89595053960259		1.00383603572845	5.37366371390859	6.92240364549731	0.776271363112998	0.00131940837736061	99.6966560142947
476	5.76698204952238		7.40000096952961		1.00481963157654	5.76475369882423	7.4356662411053	0.775284085097304	0.00135131401377736	99.6893320243487
474	6.41497384568614		8.2270739379796		1.0059871673584	6.41274549498799	8.27633079974487	0.774829528948465	0.00136165179973031	99.6869590844342
472	7.10462354620568		9.10322343868541		1.00742340087891	7.10239519550753	9.17080030878003	0.774457512580202	0.00140302431702672	99.6774629840487
470	7.64859124610541		9.78343594347943		1.00905096530914	7.64636289540725	9.87198547601613	0.774551675950496	0.0014424753395189	99.6684087607138
468	7.84196660215363		10.0122929512789		1.01076722145081	7.83973825145548	10.1200975199122	0.774670227834279	0.00152409674591154	99.6496788167961
466	7.58088515037234		9.66022636614724		1.01238787174225	7.57865679967419	9.77989600455774	0.774922023316229	0.00154648837963643	99.644541147125
464	7.15060025876235		9.10812415230765		1.01368534564972	7.1483719080642	9.23277197272939	0.774238974944704	0.00157773972728992	99.6373710948018
462	6.7212233655712		8.56322531133593		1.01450979709625	6.71899501487305	8.6874759662642	0.77341163773744	0.00166004580744406	99.6184899329368
460	6.31093294127915		8.04632849661949		1.01470625400543	6.308704590581	8.1646598404719	0.772684314331014	0.00167913321239829	99.6141117592477
458	5.85107851102529		7.47535392520808		1.01420342922211	5.84885016032714	7.58152957876834	0.771460442059941	0.00177625331328737	99.5918378153618
456	5.44571277872077		6.98258223434357		1.01296448707581	5.44348442802262	7.07310782465817	0.769602918966628	0.00187864877999949	99.568359389894
454	5.14629334632345		6.6312630275142		1.01096189022064	5.1440649956253	6.70395419804119	0.767318040020071	0.00191375203024872	99.5603117818039
452	4.89092883412268		6.33399087012331		1.00839364528656	4.88870048342453	6.38715613594791	0.765395487345324	0.00195294979014446	99.5513262541261
450	4.57043140826991		5.94584012986239		1.00559830665588	4.56820305757176	5.9791267594675	0.764025122956015	0.00201323970917911	99.5375072325492
448	4.18199657095483		5.46659653389574		1.00291681289673	4.17976822025668	5.48254156641635	0.762377844221029	0.0021076299898459	99.5158759369491
446	3.92083281936918		5.1446477126912		1.00074863433838	3.91860446867103	5.14849916589171	0.761115879095678	0.00214088093813275	99.5082569808904
444	3.84410091988612		5.053046845419		0.999439060688019	3.84187256918797	5.05021238607086	0.760734851426121	0.00220883437496341	99.492688284189
442	3.87733099787834		5.09464476442345		0.999334216117859	3.87510264718019	5.09125282532751	0.761129486224427	0.00226552564298456	99.4797017076334
440	3.93677534484635		5.16455353442656		1.00051915645599	3.9345469941482	5.16723473900176	0.76144150457316	0.00234640741742813	99.461176614785
438	3.9934362670959		5.22780315293885		1.00279068946838	3.99120791639775	5.24239232139073	0.761333313440178	0.00239526137395027	99.4499888173084
